  9.5500000000000000e+002
  9.5500000000000000e+002
  9.5500000000000000e+002
  9.5500000000000000e+002
  9.5500000000000000e+002
  9.5500000000000000e+002
  9.5500000000000000e+002
  9.5800000000000000e+002
  9.6000000000000000e+002
  9.6000000000000000e+002
  9.5900000000000000e+002
  9.5800000000000000e+002
  9.5900000000000000e+002
  9.6100000000000000e+002
  9.6300000000000000e+002
  9.6400000000000000e+002
  9.6100000000000000e+002
  9.6000000000000000e+002
  9.6100000000000000e+002
  9.6400000000000000e+002
  9.6600000000000000e+002
  9.6600000000000000e+002
  9.6500000000000000e+002
  9.6600000000000000e+002
  9.6500000000000000e+002
  9.6700000000000000e+002
  9.7300000000000000e+002
  9.7800000000000000e+002
  9.8400000000000000e+002
  9.8500000000000000e+002
  9.9200000000000000e+002
  9.9200000000000000e+002
  9.9100000000000000e+002
  9.8400000000000000e+002
  9.8400000000000000e+002
  9.8200000000000000e+002
  9.8200000000000000e+002
  9.8300000000000000e+002
  9.8200000000000000e+002
  9.8200000000000000e+002
  9.8000000000000000e+002
  9.7400000000000000e+002
  9.7400000000000000e+002
  9.7400000000000000e+002
  9.7200000000000000e+002
  9.7100000000000000e+002
  9.6900000000000000e+002
  9.6300000000000000e+002
  9.6000000000000000e+002
  9.5800000000000000e+002
  9.6000000000000000e+002
  9.6000000000000000e+002
  9.6100000000000000e+002
  9.5600000000000000e+002
  9.5400000000000000e+002
  9.5700000000000000e+002
  9.6000000000000000e+002
  9.6200000000000000e+002
  9.5700000000000000e+002
  9.5500000000000000e+002
  9.5400000000000000e+002
  9.5400000000000000e+002
  9.5300000000000000e+002
  9.5400000000000000e+002
  9.5400000000000000e+002
  9.5000000000000000e+002
  9.5200000000000000e+002
  9.5500000000000000e+002
  9.5900000000000000e+002
  9.5900000000000000e+002
  9.5700000000000000e+002
  9.5000000000000000e+002
  9.4400000000000000e+002
  9.4400000000000000e+002
  9.4500000000000000e+002
  9.5400000000000000e+002
  9.8200000000000000e+002
  1.0220000000000000e+003
  1.0730000000000000e+003
  1.1300000000000000e+003
  1.1940000000000000e+003
  1.2410000000000000e+003
  1.2370000000000000e+003
  1.1870000000000000e+003
  1.1200000000000000e+003
  1.0660000000000000e+003
  1.0220000000000000e+003
  9.9500000000000000e+002
  9.8700000000000000e+002
  9.7600000000000000e+002
  9.6700000000000000e+002
  9.6700000000000000e+002
  9.6700000000000000e+002
  9.6600000000000000e+002
  9.6400000000000000e+002
  9.5700000000000000e+002
  9.5200000000000000e+002
  9.5200000000000000e+002
  9.4700000000000000e+002
  9.4500000000000000e+002
  9.4100000000000000e+002
  9.3800000000000000e+002
  9.3700000000000000e+002
  9.4300000000000000e+002
  9.4200000000000000e+002
  9.4300000000000000e+002
  9.4100000000000000e+002
  9.3600000000000000e+002
  9.3800000000000000e+002
  9.4100000000000000e+002
  9.4000000000000000e+002
  9.4100000000000000e+002
  9.4000000000000000e+002
  9.3800000000000000e+002
  9.3600000000000000e+002
  9.3900000000000000e+002
  9.4100000000000000e+002
  9.3900000000000000e+002
  9.3800000000000000e+002
  9.3900000000000000e+002
  9.4100000000000000e+002
  9.4000000000000000e+002
  9.4100000000000000e+002
  9.4000000000000000e+002
  9.4000000000000000e+002
  9.3700000000000000e+002
  9.4100000000000000e+002
  9.4100000000000000e+002
  9.4400000000000000e+002
  9.4500000000000000e+002
  9.4200000000000000e+002
  9.3900000000000000e+002
  9.4100000000000000e+002
  9.4300000000000000e+002
  9.4500000000000000e+002
  9.4400000000000000e+002
  9.4200000000000000e+002
  9.4000000000000000e+002
  9.4200000000000000e+002
  9.4500000000000000e+002
  9.4800000000000000e+002
  9.4600000000000000e+002
  9.4400000000000000e+002
  9.4100000000000000e+002
  9.4000000000000000e+002
  9.4700000000000000e+002
  9.4900000000000000e+002
  9.4800000000000000e+002
  9.4900000000000000e+002
  9.5100000000000000e+002
  9.5400000000000000e+002
  9.5400000000000000e+002
  9.5400000000000000e+002
  9.5600000000000000e+002
  9.5400000000000000e+002
  9.5400000000000000e+002
  9.5900000000000000e+002
  9.6000000000000000e+002
  9.6200000000000000e+002
  9.6200000000000000e+002
  9.6200000000000000e+002
  9.6300000000000000e+002
  9.6700000000000000e+002
  9.7000000000000000e+002
  9.7100000000000000e+002
  9.7100000000000000e+002
  9.7300000000000000e+002
  9.7600000000000000e+002
  9.8000000000000000e+002
  9.8200000000000000e+002
  9.8300000000000000e+002
  9.8600000000000000e+002
  9.8900000000000000e+002
  9.8900000000000000e+002
  9.9100000000000000e+002
  9.9300000000000000e+002
  9.9500000000000000e+002
  9.9800000000000000e+002
  9.9900000000000000e+002
  9.9700000000000000e+002
  9.9900000000000000e+002
  1.0020000000000000e+003
  1.0060000000000000e+003
  1.0030000000000000e+003
  1.0000000000000000e+003
  1.0000000000000000e+003
  1.0000000000000000e+003
  1.0020000000000000e+003
  1.0020000000000000e+003
  9.9800000000000000e+002
  9.9200000000000000e+002
  9.9100000000000000e+002
  9.9000000000000000e+002
  9.9000000000000000e+002
  9.8800000000000000e+002
  9.8300000000000000e+002
  9.7900000000000000e+002
  9.7700000000000000e+002
  9.7500000000000000e+002
  9.7400000000000000e+002
  9.7300000000000000e+002
  9.7100000000000000e+002
  9.6900000000000000e+002
  9.6700000000000000e+002
  9.6500000000000000e+002
  9.6600000000000000e+002
  9.6300000000000000e+002
  9.6100000000000000e+002
  9.5800000000000000e+002
  9.5600000000000000e+002
  9.5900000000000000e+002
  9.5900000000000000e+002
  9.6100000000000000e+002
  9.6200000000000000e+002
  9.5700000000000000e+002
  9.5300000000000000e+002
  9.5300000000000000e+002
  9.5100000000000000e+002
  9.5500000000000000e+002
  9.5500000000000000e+002
  9.5800000000000000e+002
  9.5400000000000000e+002
  9.5300000000000000e+002
  9.5600000000000000e+002
  9.5500000000000000e+002
  9.5500000000000000e+002
  9.5400000000000000e+002
  9.5400000000000000e+002
  9.5400000000000000e+002
  9.5500000000000000e+002
  9.5800000000000000e+002
  9.5600000000000000e+002
  9.5400000000000000e+002
  9.5200000000000000e+002
  9.5400000000000000e+002
  9.5600000000000000e+002
  9.5800000000000000e+002
  9.6000000000000000e+002
  9.5900000000000000e+002
  9.6000000000000000e+002
  9.5900000000000000e+002
  9.6000000000000000e+002
  9.6100000000000000e+002
  9.5900000000000000e+002
  9.5500000000000000e+002
  9.5400000000000000e+002
  9.5800000000000000e+002
  9.6000000000000000e+002
  9.6300000000000000e+002
  9.6300000000000000e+002
  9.6400000000000000e+002
  9.6000000000000000e+002
  9.5900000000000000e+002
  9.5900000000000000e+002
  9.6300000000000000e+002
  9.6600000000000000e+002
  9.6300000000000000e+002
  9.6000000000000000e+002
  9.5900000000000000e+002
  9.5900000000000000e+002
  9.6200000000000000e+002
  9.6200000000000000e+002
  9.6200000000000000e+002
  9.5900000000000000e+002
  9.6200000000000000e+002
  9.6200000000000000e+002
  9.6100000000000000e+002
  9.6200000000000000e+002
  9.6000000000000000e+002
  9.5800000000000000e+002
  9.6000000000000000e+002
  9.6100000000000000e+002
  9.6100000000000000e+002
  9.6100000000000000e+002
  9.5600000000000000e+002
  9.5600000000000000e+002
  9.5900000000000000e+002
  9.6200000000000000e+002
  9.6300000000000000e+002
  9.6000000000000000e+002
  9.6000000000000000e+002
  9.5800000000000000e+002
  9.5800000000000000e+002
  9.5700000000000000e+002
  9.6000000000000000e+002
  9.6000000000000000e+002
  9.5800000000000000e+002
  9.5600000000000000e+002
  9.5500000000000000e+002
  9.5700000000000000e+002
  9.6000000000000000e+002
  9.5800000000000000e+002
  9.5900000000000000e+002
  9.6000000000000000e+002
  9.5900000000000000e+002
  9.5900000000000000e+002
  9.6100000000000000e+002
  9.6100000000000000e+002
  9.6000000000000000e+002
  9.5700000000000000e+002
  9.5700000000000000e+002
  9.5900000000000000e+002
  9.6000000000000000e+002
  9.5800000000000000e+002
  9.5600000000000000e+002
  9.5400000000000000e+002
  9.5800000000000000e+002
  9.5700000000000000e+002
  9.5900000000000000e+002
  9.6200000000000000e+002
  9.5600000000000000e+002
  9.5300000000000000e+002
  9.5700000000000000e+002
  9.6000000000000000e+002
  9.6300000000000000e+002
  9.6200000000000000e+002
  9.6100000000000000e+002
  9.6000000000000000e+002
  9.5400000000000000e+002
  9.6100000000000000e+002
  9.6000000000000000e+002
  9.6000000000000000e+002
  9.6000000000000000e+002
  9.6000000000000000e+002
  9.6000000000000000e+002
  9.6200000000000000e+002
  9.6200000000000000e+002
  9.6100000000000000e+002
  9.6100000000000000e+002
  9.6200000000000000e+002
  9.6500000000000000e+002
  9.6800000000000000e+002
  9.6800000000000000e+002
  9.6600000000000000e+002
  9.6500000000000000e+002
  9.6500000000000000e+002
  9.6700000000000000e+002
  9.6900000000000000e+002
  9.7600000000000000e+002
  9.8000000000000000e+002
  9.8100000000000000e+002
  9.8100000000000000e+002
  9.8900000000000000e+002
  9.9500000000000000e+002
  9.9600000000000000e+002
  9.9400000000000000e+002
  9.8700000000000000e+002
  9.8200000000000000e+002
  9.8100000000000000e+002
  9.8100000000000000e+002
  9.8300000000000000e+002
  9.8200000000000000e+002
  9.8100000000000000e+002
  9.7700000000000000e+002
  9.7300000000000000e+002
  9.7400000000000000e+002
  9.7400000000000000e+002
  9.7600000000000000e+002
  9.7300000000000000e+002
  9.7000000000000000e+002
  9.6900000000000000e+002
  9.6400000000000000e+002
  9.6400000000000000e+002
  9.5900000000000000e+002
  9.6000000000000000e+002
  9.5900000000000000e+002
  9.6100000000000000e+002
  9.6300000000000000e+002
  9.6300000000000000e+002
  9.6100000000000000e+002
  9.6000000000000000e+002
  9.5300000000000000e+002
  9.5400000000000000e+002
  9.5400000000000000e+002
  9.5700000000000000e+002
  9.6000000000000000e+002
  9.5900000000000000e+002
  9.5600000000000000e+002
  9.5400000000000000e+002
  9.5900000000000000e+002
  9.6300000000000000e+002
  9.6200000000000000e+002
  9.5900000000000000e+002
  9.5200000000000000e+002
  9.5300000000000000e+002
  9.5200000000000000e+002
  9.5300000000000000e+002
  9.5200000000000000e+002
  9.5000000000000000e+002
  9.7000000000000000e+002
  1.0070000000000000e+003
  1.0510000000000000e+003
  1.1010000000000000e+003
  1.1620000000000000e+003
  1.2130000000000000e+003
  1.2280000000000000e+003
  1.2020000000000000e+003
  1.1450000000000000e+003
  1.0930000000000000e+003
  1.0470000000000000e+003
  1.0130000000000000e+003
  9.9600000000000000e+002
  9.8700000000000000e+002
  9.7700000000000000e+002
  9.7600000000000000e+002
  9.7400000000000000e+002
  9.7000000000000000e+002
  9.6400000000000000e+002
  9.6100000000000000e+002
  9.5600000000000000e+002
  9.5000000000000000e+002
  9.4800000000000000e+002
  9.4300000000000000e+002
  9.4500000000000000e+002
  9.4700000000000000e+002
  9.4900000000000000e+002
  9.5100000000000000e+002
  9.4900000000000000e+002
  9.4500000000000000e+002
  9.4100000000000000e+002
  9.4000000000000000e+002
  9.4300000000000000e+002
  9.4600000000000000e+002
  9.4200000000000000e+002
  9.4400000000000000e+002
  9.4200000000000000e+002
  9.4600000000000000e+002
  9.4500000000000000e+002
  9.4600000000000000e+002
  9.4500000000000000e+002
  9.4100000000000000e+002
  9.3900000000000000e+002
  9.4000000000000000e+002
  9.4500000000000000e+002
  9.4600000000000000e+002
  9.4400000000000000e+002
  9.4300000000000000e+002
  9.4300000000000000e+002
  9.4500000000000000e+002
  9.4700000000000000e+002
  9.4700000000000000e+002
  9.4700000000000000e+002
  9.4400000000000000e+002
  9.4300000000000000e+002
  9.4300000000000000e+002
  9.4400000000000000e+002
  9.4600000000000000e+002
  9.4700000000000000e+002
  9.4400000000000000e+002
  9.4100000000000000e+002
  9.4300000000000000e+002
  9.4600000000000000e+002
  9.4900000000000000e+002
  9.5000000000000000e+002
  9.4700000000000000e+002
  9.4400000000000000e+002
  9.4700000000000000e+002
  9.5000000000000000e+002
  9.5200000000000000e+002
  9.5100000000000000e+002
  9.5100000000000000e+002
  9.4900000000000000e+002
  9.4800000000000000e+002
  9.5300000000000000e+002
  9.5600000000000000e+002
  9.5600000000000000e+002
  9.5700000000000000e+002
  9.5500000000000000e+002
  9.5700000000000000e+002
  9.6000000000000000e+002
  9.6100000000000000e+002
  9.5800000000000000e+002
  9.6100000000000000e+002
  9.5800000000000000e+002
  9.6100000000000000e+002
  9.6400000000000000e+002
  9.6900000000000000e+002
  9.7300000000000000e+002
  9.7600000000000000e+002
  9.7300000000000000e+002
  9.7500000000000000e+002
  9.7700000000000000e+002
  9.8000000000000000e+002
  9.8200000000000000e+002
  9.8200000000000000e+002
  9.8100000000000000e+002
  9.8300000000000000e+002
  9.8700000000000000e+002
  9.9000000000000000e+002
  9.9400000000000000e+002
  9.9600000000000000e+002
  9.9500000000000000e+002
  9.9600000000000000e+002
  1.0010000000000000e+003
  1.0000000000000000e+003
  9.9900000000000000e+002
  1.0010000000000000e+003
  9.9800000000000000e+002
  1.0000000000000000e+003
  1.0000000000000000e+003
  9.9900000000000000e+002
  1.0010000000000000e+003
  9.9800000000000000e+002
  9.9900000000000000e+002
  9.9900000000000000e+002
  9.9800000000000000e+002
  9.9600000000000000e+002
  9.9200000000000000e+002
  9.9000000000000000e+002
  9.8600000000000000e+002
  9.8500000000000000e+002
  9.8600000000000000e+002
  9.8800000000000000e+002
  9.8500000000000000e+002
  9.7900000000000000e+002
  9.7700000000000000e+002
  9.7600000000000000e+002
  9.7700000000000000e+002
  9.7700000000000000e+002
  9.7600000000000000e+002
  9.7000000000000000e+002
  9.6900000000000000e+002
  9.6800000000000000e+002
  9.6900000000000000e+002
  9.6900000000000000e+002
  9.6800000000000000e+002
  9.6400000000000000e+002
  9.6200000000000000e+002
  9.6200000000000000e+002
  9.6300000000000000e+002
  9.6500000000000000e+002
  9.6500000000000000e+002
  9.6200000000000000e+002
  9.6000000000000000e+002
  9.6300000000000000e+002
  9.6400000000000000e+002
  9.6500000000000000e+002
  9.6100000000000000e+002
  9.6100000000000000e+002
  9.6000000000000000e+002
  9.6300000000000000e+002
  9.6300000000000000e+002
  9.6500000000000000e+002
  9.6200000000000000e+002
  9.6300000000000000e+002
  9.6400000000000000e+002
  9.6300000000000000e+002
  9.6400000000000000e+002
  9.6200000000000000e+002
  9.6500000000000000e+002
  9.6500000000000000e+002
  9.6500000000000000e+002
  9.6600000000000000e+002
  9.6700000000000000e+002
  9.6800000000000000e+002
  9.6900000000000000e+002
  9.6900000000000000e+002
  9.6700000000000000e+002
  9.6600000000000000e+002
  9.6900000000000000e+002
  9.6800000000000000e+002
  9.7000000000000000e+002
  9.6700000000000000e+002
  9.6500000000000000e+002
  9.6500000000000000e+002
  9.6900000000000000e+002
  9.7000000000000000e+002
  9.7100000000000000e+002
  9.7100000000000000e+002
  9.7000000000000000e+002
  9.7100000000000000e+002
  9.7000000000000000e+002
  9.7200000000000000e+002
  9.7200000000000000e+002
  9.7100000000000000e+002
  9.6700000000000000e+002
  9.6700000000000000e+002
  9.6900000000000000e+002
  9.7200000000000000e+002
  9.7100000000000000e+002
  9.6800000000000000e+002
  9.6700000000000000e+002
  9.6800000000000000e+002
  9.7100000000000000e+002
  9.7100000000000000e+002
  9.7100000000000000e+002
  9.7100000000000000e+002
  9.7100000000000000e+002
  9.7000000000000000e+002
  9.7000000000000000e+002
  9.7300000000000000e+002
  9.7100000000000000e+002
  9.6800000000000000e+002
  9.6600000000000000e+002
  9.6800000000000000e+002
  9.7000000000000000e+002
  9.7000000000000000e+002
  9.7100000000000000e+002
  9.7100000000000000e+002
  9.6500000000000000e+002
  9.6800000000000000e+002
  9.6700000000000000e+002
  9.7100000000000000e+002
  9.7100000000000000e+002
  9.6800000000000000e+002
  9.6700000000000000e+002
  9.6700000000000000e+002
  9.6900000000000000e+002
  9.6900000000000000e+002
  9.6900000000000000e+002
  9.6900000000000000e+002
  9.6700000000000000e+002
  9.6700000000000000e+002
  9.7000000000000000e+002
  9.7100000000000000e+002
  9.7000000000000000e+002
  9.6900000000000000e+002
  9.6700000000000000e+002
  9.6800000000000000e+002
  9.7100000000000000e+002
  9.7100000000000000e+002
  9.6900000000000000e+002
  9.7000000000000000e+002
  9.6900000000000000e+002
  9.6900000000000000e+002
  9.6900000000000000e+002
  9.7200000000000000e+002
  9.7100000000000000e+002
  9.6900000000000000e+002
  9.6700000000000000e+002
  9.6800000000000000e+002
  9.6800000000000000e+002
  9.7200000000000000e+002
  9.7000000000000000e+002
  9.6900000000000000e+002
  9.6800000000000000e+002
  9.6800000000000000e+002
  9.7000000000000000e+002
  9.7300000000000000e+002
  9.7900000000000000e+002
  9.7700000000000000e+002
  9.7500000000000000e+002
  9.7600000000000000e+002
  9.8000000000000000e+002
  9.8200000000000000e+002
  9.8100000000000000e+002
  9.8000000000000000e+002
  9.7900000000000000e+002
  9.7700000000000000e+002
  9.7800000000000000e+002
  9.8000000000000000e+002
  9.8600000000000000e+002
  9.8800000000000000e+002
  9.8700000000000000e+002
  9.9400000000000000e+002
  1.0010000000000000e+003
  1.0030000000000000e+003
  1.0040000000000000e+003
  9.9900000000000000e+002
  9.9400000000000000e+002
  9.9300000000000000e+002
  9.9400000000000000e+002
  9.9200000000000000e+002
  9.8900000000000000e+002
  9.8700000000000000e+002
  9.8400000000000000e+002
  9.8600000000000000e+002
  9.8600000000000000e+002
  9.8800000000000000e+002
  9.8500000000000000e+002
  9.8200000000000000e+002
  9.7900000000000000e+002
  9.8000000000000000e+002
  9.7900000000000000e+002
  9.7600000000000000e+002
  9.7600000000000000e+002
  9.7200000000000000e+002
  9.6600000000000000e+002
  9.6700000000000000e+002
  9.6800000000000000e+002
  9.7100000000000000e+002
  9.6900000000000000e+002
  9.6500000000000000e+002
  9.6300000000000000e+002
  9.6500000000000000e+002
  9.6600000000000000e+002
  9.6900000000000000e+002
  9.6700000000000000e+002
  9.6500000000000000e+002
  9.6300000000000000e+002
  9.6000000000000000e+002
  9.6300000000000000e+002
  9.6500000000000000e+002
  9.6400000000000000e+002
  9.6300000000000000e+002
  9.6300000000000000e+002
  9.6500000000000000e+002
  9.6700000000000000e+002
  9.6600000000000000e+002
  9.6200000000000000e+002
  9.5600000000000000e+002
  9.5000000000000000e+002
  9.5100000000000000e+002
  9.6600000000000000e+002
  9.9400000000000000e+002
  1.0370000000000000e+003
  1.0830000000000000e+003
  1.1320000000000000e+003
  1.1920000000000000e+003
  1.2410000000000000e+003
  1.2570000000000000e+003
  1.2320000000000000e+003
  1.1770000000000000e+003
  1.1200000000000000e+003
  1.0680000000000000e+003
  1.0270000000000000e+003
  1.0080000000000000e+003
  1.0010000000000000e+003
  9.8700000000000000e+002
  9.7700000000000000e+002
  9.7500000000000000e+002
  9.7700000000000000e+002
  9.7600000000000000e+002
  9.7200000000000000e+002
  9.6400000000000000e+002
  9.5500000000000000e+002
  9.5400000000000000e+002
  9.5100000000000000e+002
  9.5400000000000000e+002
  9.5100000000000000e+002
  9.4900000000000000e+002
  9.4600000000000000e+002
  9.4900000000000000e+002
  9.5000000000000000e+002
  9.5000000000000000e+002
  9.4900000000000000e+002
  9.4700000000000000e+002
  9.4600000000000000e+002
  9.4500000000000000e+002
  9.4400000000000000e+002
  9.4600000000000000e+002
  9.4600000000000000e+002
  9.4400000000000000e+002
  9.4400000000000000e+002
  9.4600000000000000e+002
  9.4700000000000000e+002
  9.4700000000000000e+002
  9.4700000000000000e+002
  9.4500000000000000e+002
  9.4200000000000000e+002
  9.4400000000000000e+002
  9.4600000000000000e+002
  9.4700000000000000e+002
  9.4500000000000000e+002
  9.4500000000000000e+002
  9.4300000000000000e+002
  9.4300000000000000e+002
  9.4600000000000000e+002
  9.4800000000000000e+002
  9.4800000000000000e+002
  9.4500000000000000e+002
  9.4400000000000000e+002
  9.4200000000000000e+002
  9.4600000000000000e+002
  9.4700000000000000e+002
  9.4900000000000000e+002
  9.4700000000000000e+002
  9.4500000000000000e+002
  9.4500000000000000e+002
  9.4600000000000000e+002
  9.4800000000000000e+002
  9.4700000000000000e+002
  9.4600000000000000e+002
  9.4500000000000000e+002
  9.4700000000000000e+002
  9.4900000000000000e+002
  9.5100000000000000e+002
  9.5100000000000000e+002
  9.5000000000000000e+002
  9.5000000000000000e+002
  9.5100000000000000e+002
  9.5400000000000000e+002
  9.5600000000000000e+002
  9.5500000000000000e+002
  9.5500000000000000e+002
  9.5200000000000000e+002
  9.5400000000000000e+002
  9.6000000000000000e+002
  9.6300000000000000e+002
  9.6600000000000000e+002
  9.6400000000000000e+002
  9.6600000000000000e+002
  9.6500000000000000e+002
  9.6800000000000000e+002
  9.7300000000000000e+002
  9.7700000000000000e+002
  9.7500000000000000e+002
  9.7500000000000000e+002
  9.7700000000000000e+002
  9.7900000000000000e+002
  9.8300000000000000e+002
  9.8800000000000000e+002
  9.8800000000000000e+002
  9.8600000000000000e+002
  9.9000000000000000e+002
  9.9300000000000000e+002
  9.9500000000000000e+002
  9.9600000000000000e+002
  9.9400000000000000e+002
  9.9600000000000000e+002
  9.9500000000000000e+002
  9.9700000000000000e+002
  1.0020000000000000e+003
  9.9800000000000000e+002
  9.9900000000000000e+002
  9.9800000000000000e+002
  9.9700000000000000e+002
  1.0000000000000000e+003
  1.0000000000000000e+003
  1.0000000000000000e+003
  9.9500000000000000e+002
  9.9100000000000000e+002
  9.9000000000000000e+002
  9.8900000000000000e+002
  9.8900000000000000e+002
  9.8600000000000000e+002
  9.8100000000000000e+002
  9.7900000000000000e+002
  9.7700000000000000e+002
  9.7400000000000000e+002
  9.7500000000000000e+002
  9.7100000000000000e+002
  9.7000000000000000e+002
  9.6500000000000000e+002
  9.6100000000000000e+002
  9.6300000000000000e+002
  9.6500000000000000e+002
  9.6400000000000000e+002
  9.6100000000000000e+002
  9.5900000000000000e+002
  9.5900000000000000e+002
  9.5900000000000000e+002
  9.5900000000000000e+002
  9.5800000000000000e+002
  9.5600000000000000e+002
  9.5300000000000000e+002
  9.5200000000000000e+002
  9.5400000000000000e+002
  9.5700000000000000e+002
  9.5300000000000000e+002
  9.5200000000000000e+002
  9.5100000000000000e+002
  9.5100000000000000e+002
  9.5500000000000000e+002
  9.5400000000000000e+002
  9.5200000000000000e+002
  9.5200000000000000e+002
  9.5300000000000000e+002
  9.5400000000000000e+002
  9.5500000000000000e+002
  9.5700000000000000e+002
  9.5500000000000000e+002
  9.5100000000000000e+002
  9.4900000000000000e+002
  9.5100000000000000e+002
  9.5400000000000000e+002
  9.5300000000000000e+002
  9.5500000000000000e+002
  9.5400000000000000e+002
  9.5400000000000000e+002
  9.5300000000000000e+002
  9.5500000000000000e+002
  9.5800000000000000e+002
  9.5900000000000000e+002
  9.5800000000000000e+002
  9.5400000000000000e+002
  9.5400000000000000e+002
  9.5400000000000000e+002
  9.5600000000000000e+002
  9.5600000000000000e+002
  9.5400000000000000e+002
  9.5300000000000000e+002
  9.5500000000000000e+002
  9.5700000000000000e+002
  9.5800000000000000e+002
  9.5600000000000000e+002
  9.5600000000000000e+002
  9.5400000000000000e+002
  9.5600000000000000e+002
  9.5900000000000000e+002
  9.5900000000000000e+002
  9.6000000000000000e+002
  9.5600000000000000e+002
  9.5300000000000000e+002
  9.5200000000000000e+002
  9.5300000000000000e+002
  9.5500000000000000e+002
  9.5800000000000000e+002
  9.5700000000000000e+002
  9.5500000000000000e+002
  9.5500000000000000e+002
  9.5400000000000000e+002
  9.5800000000000000e+002
  9.5800000000000000e+002
  9.5500000000000000e+002
  9.5500000000000000e+002
  9.5400000000000000e+002
  9.5600000000000000e+002
  9.5500000000000000e+002
  9.5500000000000000e+002
  9.5500000000000000e+002
  9.5400000000000000e+002
  9.5500000000000000e+002
  9.5500000000000000e+002
  9.5700000000000000e+002
  9.5300000000000000e+002
  9.5200000000000000e+002
  9.5100000000000000e+002
  9.5100000000000000e+002
  9.5200000000000000e+002
  9.5400000000000000e+002
  9.5300000000000000e+002
  9.5300000000000000e+002
  9.5300000000000000e+002
  9.5400000000000000e+002
  9.5500000000000000e+002
  9.5600000000000000e+002
  9.5300000000000000e+002
  9.5000000000000000e+002
  9.4800000000000000e+002
  9.4800000000000000e+002
  9.4900000000000000e+002
  9.5100000000000000e+002
  9.5200000000000000e+002
  9.5300000000000000e+002
  9.5300000000000000e+002
  9.5100000000000000e+002
  9.5100000000000000e+002
  9.5500000000000000e+002
  9.5600000000000000e+002
  9.5200000000000000e+002
  9.4700000000000000e+002
  9.4800000000000000e+002
  9.5200000000000000e+002
  9.5500000000000000e+002
  9.5500000000000000e+002
  9.5100000000000000e+002
  9.4900000000000000e+002
  9.4700000000000000e+002
  9.5300000000000000e+002
  9.5400000000000000e+002
  9.5400000000000000e+002
  9.5200000000000000e+002
  9.5000000000000000e+002
  9.5000000000000000e+002
  9.5300000000000000e+002
  9.5400000000000000e+002
  9.5400000000000000e+002
  9.5100000000000000e+002
  9.5100000000000000e+002
  9.5200000000000000e+002
  9.5700000000000000e+002
  9.5900000000000000e+002
  9.5800000000000000e+002
  9.5900000000000000e+002
  9.5800000000000000e+002
  9.6100000000000000e+002
  9.6300000000000000e+002
  9.6200000000000000e+002
  9.6000000000000000e+002
  9.5900000000000000e+002
  9.6000000000000000e+002
  9.6200000000000000e+002
  9.6800000000000000e+002
  9.7100000000000000e+002
  9.7500000000000000e+002
  9.7600000000000000e+002
  9.7800000000000000e+002
  9.7800000000000000e+002
  9.7900000000000000e+002
  9.8000000000000000e+002
  9.7700000000000000e+002
  9.7400000000000000e+002
  9.7100000000000000e+002
  9.6900000000000000e+002
  9.7300000000000000e+002
  9.7200000000000000e+002
  9.7300000000000000e+002
  9.7000000000000000e+002
  9.6400000000000000e+002
  9.6100000000000000e+002
  9.6100000000000000e+002
  9.6000000000000000e+002
  9.5900000000000000e+002
  9.5700000000000000e+002
  9.5300000000000000e+002
  9.5100000000000000e+002
  9.5100000000000000e+002
  9.4800000000000000e+002
  9.4600000000000000e+002
  9.4400000000000000e+002
  9.4500000000000000e+002
  9.4800000000000000e+002
  9.4900000000000000e+002
  9.4700000000000000e+002
  9.4100000000000000e+002
  9.4000000000000000e+002
  9.4000000000000000e+002
  9.3900000000000000e+002
  9.4100000000000000e+002
  9.4300000000000000e+002
  9.4200000000000000e+002
  9.3900000000000000e+002
  9.3800000000000000e+002
  9.4200000000000000e+002
  9.4500000000000000e+002
  9.4400000000000000e+002
  9.4000000000000000e+002
  9.3900000000000000e+002
  9.3700000000000000e+002
  9.3400000000000000e+002
  9.3300000000000000e+002
  9.3100000000000000e+002
  9.3400000000000000e+002
  9.4200000000000000e+002
  9.7100000000000000e+002
  1.0190000000000000e+003
  1.0650000000000000e+003
  1.1160000000000000e+003
  1.1670000000000000e+003
  1.2190000000000000e+003
  1.2430000000000000e+003
  1.2260000000000000e+003
  1.1750000000000000e+003
  1.1160000000000000e+003
  1.0620000000000000e+003
  1.0140000000000000e+003
  9.8700000000000000e+002
  9.7900000000000000e+002
  9.7400000000000000e+002
  9.6800000000000000e+002
  9.5900000000000000e+002
  9.5400000000000000e+002
  9.5300000000000000e+002
  9.5400000000000000e+002
  9.5100000000000000e+002
  9.4700000000000000e+002
  9.3900000000000000e+002
  9.3500000000000000e+002
  9.3500000000000000e+002
  9.3300000000000000e+002
  9.3400000000000000e+002
  9.3300000000000000e+002
  9.2800000000000000e+002
  9.2500000000000000e+002
  9.2700000000000000e+002
  9.2900000000000000e+002
  9.3000000000000000e+002
  9.3000000000000000e+002
  9.2800000000000000e+002
  9.2300000000000000e+002
  9.2400000000000000e+002
  9.2600000000000000e+002
  9.2800000000000000e+002
  9.2500000000000000e+002
  9.2400000000000000e+002
  9.2600000000000000e+002
  9.2600000000000000e+002
  9.2900000000000000e+002
  9.3100000000000000e+002
  9.2900000000000000e+002
  9.2900000000000000e+002
  9.2700000000000000e+002
  9.2600000000000000e+002
  9.2800000000000000e+002
  9.2900000000000000e+002
  9.3100000000000000e+002
  9.2900000000000000e+002
  9.2600000000000000e+002
  9.2900000000000000e+002
  9.3100000000000000e+002
  9.2900000000000000e+002
  9.2700000000000000e+002
  9.2700000000000000e+002
  9.2700000000000000e+002
  9.2900000000000000e+002
  9.3000000000000000e+002
  9.3100000000000000e+002
  9.2900000000000000e+002
  9.2900000000000000e+002
  9.2800000000000000e+002
  9.3000000000000000e+002
  9.2900000000000000e+002
  9.3200000000000000e+002
  9.3200000000000000e+002
  9.3100000000000000e+002
  9.2700000000000000e+002
  9.2900000000000000e+002
  9.3000000000000000e+002
  9.3300000000000000e+002
  9.3100000000000000e+002
  9.3300000000000000e+002
  9.3200000000000000e+002
  9.3200000000000000e+002
  9.3300000000000000e+002
  9.3700000000000000e+002
  9.3700000000000000e+002
  9.3800000000000000e+002
  9.3700000000000000e+002
  9.3700000000000000e+002
  9.4100000000000000e+002
  9.4200000000000000e+002
  9.4400000000000000e+002
  9.4500000000000000e+002
  9.4200000000000000e+002
  9.4400000000000000e+002
  9.4800000000000000e+002
  9.5300000000000000e+002
  9.5300000000000000e+002
  9.4900000000000000e+002
  9.5300000000000000e+002
  9.5500000000000000e+002
  9.6000000000000000e+002
  9.6300000000000000e+002
  9.6600000000000000e+002
  9.6600000000000000e+002
  9.6800000000000000e+002
  9.6900000000000000e+002
  9.7300000000000000e+002
  9.7700000000000000e+002
  9.7700000000000000e+002
  9.7700000000000000e+002
  9.7500000000000000e+002
  9.7600000000000000e+002
  9.8200000000000000e+002
  9.8500000000000000e+002
  9.8800000000000000e+002
  9.8600000000000000e+002
  9.8500000000000000e+002
  9.8600000000000000e+002
  9.8700000000000000e+002
  9.8900000000000000e+002
  9.9000000000000000e+002
  9.8800000000000000e+002
  9.8700000000000000e+002
  9.8900000000000000e+002
  9.8600000000000000e+002
  9.8600000000000000e+002
  9.8500000000000000e+002
  9.8200000000000000e+002
  9.7700000000000000e+002
  9.7200000000000000e+002
  9.7300000000000000e+002
  9.7300000000000000e+002
  9.7000000000000000e+002
  9.6500000000000000e+002
  9.6000000000000000e+002
  9.5700000000000000e+002
  9.5500000000000000e+002
  9.5900000000000000e+002
  9.5800000000000000e+002
  9.5300000000000000e+002
  9.5000000000000000e+002
  9.5000000000000000e+002
  9.4900000000000000e+002
  9.5100000000000000e+002
  9.4900000000000000e+002
  9.4800000000000000e+002
  9.4600000000000000e+002
  9.4200000000000000e+002
  9.4300000000000000e+002
  9.4300000000000000e+002
  9.4500000000000000e+002
  9.4200000000000000e+002
  9.4000000000000000e+002
  9.4000000000000000e+002
  9.4200000000000000e+002
  9.4600000000000000e+002
  9.4500000000000000e+002
  9.4300000000000000e+002
  9.4100000000000000e+002
  9.4000000000000000e+002
  9.4100000000000000e+002
  9.4200000000000000e+002
  9.4100000000000000e+002
  9.4000000000000000e+002
  9.3900000000000000e+002
  9.3900000000000000e+002
  9.3900000000000000e+002
  9.4400000000000000e+002
  9.4300000000000000e+002
  9.4100000000000000e+002
  9.3900000000000000e+002
  9.4000000000000000e+002
  9.4000000000000000e+002
  9.4000000000000000e+002
  9.3800000000000000e+002
  9.3800000000000000e+002
  9.3800000000000000e+002
  9.3800000000000000e+002
  9.4300000000000000e+002
  9.4300000000000000e+002
  9.4300000000000000e+002
  9.4100000000000000e+002
  9.3800000000000000e+002
  9.4000000000000000e+002
  9.4100000000000000e+002
  9.4200000000000000e+002
  9.4400000000000000e+002
  9.4100000000000000e+002
  9.4100000000000000e+002
  9.4100000000000000e+002
  9.4200000000000000e+002
  9.4600000000000000e+002
  9.4600000000000000e+002
  9.4400000000000000e+002
  9.4200000000000000e+002
  9.4100000000000000e+002
  9.4500000000000000e+002
  9.4700000000000000e+002
  9.4600000000000000e+002
  9.4300000000000000e+002
  9.4500000000000000e+002
  9.4400000000000000e+002
  9.4700000000000000e+002
  9.4800000000000000e+002
  9.4600000000000000e+002
  9.4400000000000000e+002
  9.4100000000000000e+002
  9.4200000000000000e+002
  9.4400000000000000e+002
  9.4400000000000000e+002
  9.4200000000000000e+002
  9.4000000000000000e+002
  9.4300000000000000e+002
  9.4200000000000000e+002
  9.4400000000000000e+002
  9.4400000000000000e+002
  9.4500000000000000e+002
  9.4400000000000000e+002
  9.4100000000000000e+002
  9.4000000000000000e+002
  9.4100000000000000e+002
  9.4200000000000000e+002
  9.4000000000000000e+002
  9.4000000000000000e+002
  9.4000000000000000e+002
  9.3800000000000000e+002
  9.4100000000000000e+002
  9.4500000000000000e+002
  9.4400000000000000e+002
  9.4300000000000000e+002
  9.4000000000000000e+002
  9.3700000000000000e+002
  9.3900000000000000e+002
  9.4000000000000000e+002
  9.4100000000000000e+002
  9.4300000000000000e+002
  9.4200000000000000e+002
  9.3800000000000000e+002
  9.3800000000000000e+002
  9.4500000000000000e+002
  9.4200000000000000e+002
  9.4000000000000000e+002
  9.3900000000000000e+002
  9.4100000000000000e+002
  9.4300000000000000e+002
  9.4200000000000000e+002
  9.4300000000000000e+002
  9.4100000000000000e+002
  9.4100000000000000e+002
  9.4100000000000000e+002
  9.4300000000000000e+002
  9.4700000000000000e+002
  9.4200000000000000e+002
  9.4000000000000000e+002
  9.3800000000000000e+002
  9.4000000000000000e+002
  9.4200000000000000e+002
  9.4400000000000000e+002
  9.4300000000000000e+002
  9.4000000000000000e+002
  9.4000000000000000e+002
  9.3800000000000000e+002
  9.4100000000000000e+002
  9.4400000000000000e+002
  9.4200000000000000e+002
  9.4300000000000000e+002
  9.4300000000000000e+002
  9.4100000000000000e+002
  9.4400000000000000e+002
  9.4200000000000000e+002
  9.4200000000000000e+002
  9.4000000000000000e+002
  9.4200000000000000e+002
  9.4300000000000000e+002
  9.4600000000000000e+002
  9.4900000000000000e+002
  9.4900000000000000e+002
  9.4900000000000000e+002
  9.4900000000000000e+002
  9.4900000000000000e+002
  9.5100000000000000e+002
  9.5500000000000000e+002
  9.5500000000000000e+002
  9.5400000000000000e+002
  9.4900000000000000e+002
  9.5000000000000000e+002
  9.5700000000000000e+002
  9.6600000000000000e+002
  9.7000000000000000e+002
  9.7400000000000000e+002
  9.7700000000000000e+002
  9.7900000000000000e+002
  9.7900000000000000e+002
  9.7900000000000000e+002
  9.7500000000000000e+002
  9.7500000000000000e+002
  9.7200000000000000e+002
  9.7000000000000000e+002
  9.6900000000000000e+002
  9.7000000000000000e+002
  9.6900000000000000e+002
  9.6600000000000000e+002
  9.6200000000000000e+002
  9.6100000000000000e+002
  9.6000000000000000e+002
  9.6000000000000000e+002
  9.5800000000000000e+002
  9.5300000000000000e+002
  9.4800000000000000e+002
  9.4600000000000000e+002
  9.4500000000000000e+002
  9.4700000000000000e+002
  9.4400000000000000e+002
  9.4400000000000000e+002
  9.4000000000000000e+002
  9.3700000000000000e+002
  9.3900000000000000e+002
  9.4200000000000000e+002
  9.4000000000000000e+002
  9.4000000000000000e+002
  9.3800000000000000e+002
  9.3700000000000000e+002
  9.3800000000000000e+002
  9.4100000000000000e+002
  9.3900000000000000e+002
  9.3700000000000000e+002
  9.3600000000000000e+002
  9.3900000000000000e+002
  9.3800000000000000e+002
  9.4000000000000000e+002
  9.4200000000000000e+002
  9.4000000000000000e+002
  9.3800000000000000e+002
  9.3300000000000000e+002
  9.3200000000000000e+002
  9.3000000000000000e+002
  9.2600000000000000e+002
  9.2900000000000000e+002
  9.4100000000000000e+002
  9.7000000000000000e+002
  1.0150000000000000e+003
  1.0600000000000000e+003
  1.1100000000000000e+003
  1.1680000000000000e+003
  1.2200000000000000e+003
  1.2440000000000000e+003
  1.2320000000000000e+003
  1.1820000000000000e+003
  1.1200000000000000e+003
  1.0590000000000000e+003
  1.0090000000000000e+003
  9.7800000000000000e+002
  9.6800000000000000e+002
  9.6300000000000000e+002
  9.5300000000000000e+002
  9.4800000000000000e+002
  9.4500000000000000e+002
  9.4500000000000000e+002
  9.4500000000000000e+002
  9.4400000000000000e+002
  9.3800000000000000e+002
  9.3300000000000000e+002
  9.3000000000000000e+002
  9.2700000000000000e+002
  9.2700000000000000e+002
  9.2700000000000000e+002
  9.2300000000000000e+002
  9.2200000000000000e+002
  9.2300000000000000e+002
  9.2100000000000000e+002
  9.2400000000000000e+002
  9.2600000000000000e+002
  9.2600000000000000e+002
  9.2500000000000000e+002
  9.2200000000000000e+002
  9.1900000000000000e+002
  9.2200000000000000e+002
  9.2600000000000000e+002
  9.2600000000000000e+002
  9.2700000000000000e+002
  9.2600000000000000e+002
  9.2300000000000000e+002
  9.2400000000000000e+002
  9.2700000000000000e+002
  9.2600000000000000e+002
  9.2600000000000000e+002
  9.2500000000000000e+002
  9.2700000000000000e+002
  9.2700000000000000e+002
  9.2700000000000000e+002
  9.2700000000000000e+002
  9.2600000000000000e+002
  9.2600000000000000e+002
  9.2700000000000000e+002
  9.3000000000000000e+002
  9.3000000000000000e+002
  9.2800000000000000e+002
  9.2900000000000000e+002
  9.2600000000000000e+002
  9.2600000000000000e+002
  9.3000000000000000e+002
  9.3300000000000000e+002
  9.3400000000000000e+002
  9.3300000000000000e+002
  9.3200000000000000e+002
  9.3000000000000000e+002
  9.3200000000000000e+002
  9.3300000000000000e+002
  9.3500000000000000e+002
  9.3100000000000000e+002
  9.3000000000000000e+002
  9.3200000000000000e+002
  9.3400000000000000e+002
  9.3800000000000000e+002
  9.3700000000000000e+002
  9.3900000000000000e+002
  9.3800000000000000e+002
  9.3700000000000000e+002
  9.3800000000000000e+002
  9.4000000000000000e+002
  9.4000000000000000e+002
  9.4000000000000000e+002
  9.3900000000000000e+002
  9.4200000000000000e+002
  9.4600000000000000e+002
  9.4900000000000000e+002
  9.4800000000000000e+002
  9.5000000000000000e+002
  9.5000000000000000e+002
  9.4800000000000000e+002
  9.5000000000000000e+002
  9.5300000000000000e+002
  9.5500000000000000e+002
  9.5300000000000000e+002
  9.5500000000000000e+002
  9.5600000000000000e+002
  9.6100000000000000e+002
  9.6400000000000000e+002
  9.6500000000000000e+002
  9.6800000000000000e+002
  9.6800000000000000e+002
  9.7000000000000000e+002
  9.7400000000000000e+002
  9.7500000000000000e+002
  9.7500000000000000e+002
  9.7700000000000000e+002
  9.7800000000000000e+002
  9.7700000000000000e+002
  9.7900000000000000e+002
  9.8300000000000000e+002
  9.8500000000000000e+002
  9.8500000000000000e+002
  9.8500000000000000e+002
  9.8400000000000000e+002
  9.8800000000000000e+002
  9.9000000000000000e+002
  9.9000000000000000e+002
  9.9000000000000000e+002
  9.8700000000000000e+002
  9.8700000000000000e+002
  9.8900000000000000e+002
  9.9100000000000000e+002
  9.9100000000000000e+002
  9.8800000000000000e+002
  9.8800000000000000e+002
  9.8700000000000000e+002
  9.8500000000000000e+002
  9.8300000000000000e+002
  9.7800000000000000e+002
  9.7600000000000000e+002
  9.7500000000000000e+002
  9.7100000000000000e+002
  9.7000000000000000e+002
  9.7000000000000000e+002
  9.6700000000000000e+002
  9.6300000000000000e+002
  9.6100000000000000e+002
  9.6100000000000000e+002
  9.6100000000000000e+002
  9.6200000000000000e+002
  9.6100000000000000e+002
  9.6000000000000000e+002
  9.5700000000000000e+002
  9.5600000000000000e+002
  9.5600000000000000e+002
  9.5700000000000000e+002
  9.5600000000000000e+002
  9.5500000000000000e+002
  9.5200000000000000e+002
  9.5100000000000000e+002
  9.5300000000000000e+002
  9.5400000000000000e+002
  9.5500000000000000e+002
  9.5200000000000000e+002
  9.4900000000000000e+002
  9.5000000000000000e+002
  9.5000000000000000e+002
  9.5100000000000000e+002
  9.5200000000000000e+002
  9.5100000000000000e+002
  9.4900000000000000e+002
  9.5100000000000000e+002
  9.5400000000000000e+002
  9.5800000000000000e+002
  9.5500000000000000e+002
  9.5400000000000000e+002
  9.5400000000000000e+002
  9.5400000000000000e+002
  9.5500000000000000e+002
  9.5800000000000000e+002
  9.5700000000000000e+002
  9.5600000000000000e+002
  9.5300000000000000e+002
  9.5100000000000000e+002
  9.5600000000000000e+002
  9.5800000000000000e+002
  9.5700000000000000e+002
  9.5600000000000000e+002
  9.5500000000000000e+002
  9.5500000000000000e+002
  9.5600000000000000e+002
  9.6000000000000000e+002
  9.5800000000000000e+002
  9.5600000000000000e+002
  9.5800000000000000e+002
  9.5700000000000000e+002
  9.5700000000000000e+002
  9.5800000000000000e+002
  9.5700000000000000e+002
  9.5700000000000000e+002
  9.5700000000000000e+002
  9.5700000000000000e+002
  9.5900000000000000e+002
  9.6200000000000000e+002
  9.6100000000000000e+002
  9.5900000000000000e+002
  9.6000000000000000e+002
  9.5700000000000000e+002
  9.6000000000000000e+002
  9.6200000000000000e+002
  9.6100000000000000e+002
  9.6000000000000000e+002
  9.6000000000000000e+002
  9.6000000000000000e+002
  9.6000000000000000e+002
  9.6200000000000000e+002
  9.6000000000000000e+002
  9.6000000000000000e+002
  9.5800000000000000e+002
  9.5600000000000000e+002
  9.6000000000000000e+002
  9.6200000000000000e+002
  9.6200000000000000e+002
  9.5900000000000000e+002
  9.5700000000000000e+002
  9.5700000000000000e+002
  9.6100000000000000e+002
  9.6100000000000000e+002
  9.5800000000000000e+002
  9.5800000000000000e+002
  9.5800000000000000e+002
  9.5800000000000000e+002
  9.5800000000000000e+002
  9.6200000000000000e+002
  9.6000000000000000e+002
  9.5800000000000000e+002
  9.5800000000000000e+002
  9.5800000000000000e+002
  9.5900000000000000e+002
  9.6100000000000000e+002
  9.6000000000000000e+002
  9.5900000000000000e+002
  9.5800000000000000e+002
  9.5700000000000000e+002
  9.5900000000000000e+002
  9.6300000000000000e+002
  9.6100000000000000e+002
  9.6000000000000000e+002
  9.5800000000000000e+002
  9.5800000000000000e+002
  9.6100000000000000e+002
  9.6100000000000000e+002
  9.6200000000000000e+002
  9.5900000000000000e+002
  9.5900000000000000e+002
  9.5900000000000000e+002
  9.6100000000000000e+002
  9.6200000000000000e+002
  9.6100000000000000e+002
  9.6000000000000000e+002
  9.5900000000000000e+002
  9.6000000000000000e+002
  9.6100000000000000e+002
  9.6100000000000000e+002
  9.6200000000000000e+002
  9.5900000000000000e+002
  9.5800000000000000e+002
  9.5900000000000000e+002
  9.5900000000000000e+002
  9.6200000000000000e+002
  9.6400000000000000e+002
  9.6000000000000000e+002
  9.6000000000000000e+002
  9.5800000000000000e+002
  9.5900000000000000e+002
  9.6200000000000000e+002
  9.6000000000000000e+002
  9.6100000000000000e+002
  9.6100000000000000e+002
  9.6000000000000000e+002
  9.5900000000000000e+002
  9.6200000000000000e+002
  9.6300000000000000e+002
  9.6200000000000000e+002
  9.6000000000000000e+002
  9.5800000000000000e+002
  9.6100000000000000e+002
  9.6500000000000000e+002
  9.6600000000000000e+002
  9.6600000000000000e+002
  9.6200000000000000e+002
  9.6400000000000000e+002
  9.6700000000000000e+002
  9.6800000000000000e+002
  9.6800000000000000e+002
  9.6900000000000000e+002
  9.6700000000000000e+002
  9.6900000000000000e+002
  9.7400000000000000e+002
  9.8000000000000000e+002
  9.8400000000000000e+002
  9.8400000000000000e+002
  9.8800000000000000e+002
  9.9300000000000000e+002
  9.9800000000000000e+002
  9.9900000000000000e+002
  9.9800000000000000e+002
  9.9100000000000000e+002
  9.8800000000000000e+002
  9.8600000000000000e+002
  9.8500000000000000e+002
  9.8600000000000000e+002
  9.8400000000000000e+002
  9.8100000000000000e+002
  9.8000000000000000e+002
  9.7900000000000000e+002
  9.7800000000000000e+002
  9.8100000000000000e+002
  9.7700000000000000e+002
  9.7300000000000000e+002
  9.7200000000000000e+002
  9.6700000000000000e+002
  9.6500000000000000e+002
  9.6200000000000000e+002
  9.6200000000000000e+002
  9.5900000000000000e+002
  9.5700000000000000e+002
  9.5300000000000000e+002
  9.5400000000000000e+002
  9.5400000000000000e+002
  9.5200000000000000e+002
  9.5200000000000000e+002
  9.5000000000000000e+002
  9.4900000000000000e+002
  9.5200000000000000e+002
  9.5400000000000000e+002
  9.5400000000000000e+002
  9.5000000000000000e+002
  9.4700000000000000e+002
  9.4700000000000000e+002
  9.4900000000000000e+002
  9.5200000000000000e+002
  9.5000000000000000e+002
  9.5000000000000000e+002
  9.5000000000000000e+002
  9.4900000000000000e+002
  9.4600000000000000e+002
  9.4700000000000000e+002
  9.4300000000000000e+002
  9.3800000000000000e+002
  9.3800000000000000e+002
  9.4100000000000000e+002
  9.6400000000000000e+002
  9.9700000000000000e+002
  1.0390000000000000e+003
  1.0790000000000000e+003
  1.1270000000000000e+003
  1.1810000000000000e+003
  1.2190000000000000e+003
  1.2240000000000000e+003
  1.1880000000000000e+003
  1.1300000000000000e+003
  1.0770000000000000e+003
  1.0240000000000000e+003
  9.8400000000000000e+002
  9.7000000000000000e+002
  9.6400000000000000e+002
  9.5700000000000000e+002
  9.5000000000000000e+002
  9.5000000000000000e+002
  9.5200000000000000e+002
  9.5100000000000000e+002
  9.4600000000000000e+002
  9.4100000000000000e+002
  9.3300000000000000e+002
  9.2800000000000000e+002
  9.3000000000000000e+002
  9.3100000000000000e+002
  9.2800000000000000e+002
  9.2900000000000000e+002
  9.2400000000000000e+002
  9.2500000000000000e+002
  9.2700000000000000e+002
  9.2600000000000000e+002
  9.2600000000000000e+002
  9.2400000000000000e+002
  9.2100000000000000e+002
  9.2100000000000000e+002
  9.2400000000000000e+002
  9.2700000000000000e+002
  9.2700000000000000e+002
  9.2600000000000000e+002
  9.2200000000000000e+002
  9.2000000000000000e+002
  9.2000000000000000e+002
  9.2200000000000000e+002
  9.2500000000000000e+002
  9.2600000000000000e+002
  9.2400000000000000e+002
  9.2400000000000000e+002
  9.2100000000000000e+002
  9.2100000000000000e+002
  9.2000000000000000e+002
  9.2000000000000000e+002
  9.2000000000000000e+002
  9.1900000000000000e+002
  9.2300000000000000e+002
  9.2400000000000000e+002
  9.2600000000000000e+002
  9.2100000000000000e+002
  9.2100000000000000e+002
  9.1700000000000000e+002
  9.2200000000000000e+002
  9.2100000000000000e+002
  9.2100000000000000e+002
  9.1600000000000000e+002
  9.1500000000000000e+002
  9.2000000000000000e+002
  9.2200000000000000e+002
  9.2700000000000000e+002
  9.2700000000000000e+002
  9.2500000000000000e+002
  9.2200000000000000e+002
  9.1900000000000000e+002
  9.2200000000000000e+002
  9.2400000000000000e+002
  9.2500000000000000e+002
  9.2200000000000000e+002
  9.2300000000000000e+002
  9.2400000000000000e+002
  9.2900000000000000e+002
  9.2600000000000000e+002
  9.2800000000000000e+002
  9.2700000000000000e+002
  9.2500000000000000e+002
  9.2500000000000000e+002
  9.2500000000000000e+002
  9.2500000000000000e+002
  9.2600000000000000e+002
  9.2500000000000000e+002
  9.2700000000000000e+002
  9.3000000000000000e+002
  9.3400000000000000e+002
  9.3600000000000000e+002
  9.3600000000000000e+002
  9.3400000000000000e+002
  9.3100000000000000e+002
  9.3300000000000000e+002
  9.3500000000000000e+002
  9.4100000000000000e+002
  9.4000000000000000e+002
  9.4200000000000000e+002
  9.4100000000000000e+002
  9.4200000000000000e+002
  9.4500000000000000e+002
  9.5000000000000000e+002
  9.5100000000000000e+002
  9.5300000000000000e+002
  9.5200000000000000e+002
  9.5000000000000000e+002
  9.5300000000000000e+002
  9.6000000000000000e+002
  9.6300000000000000e+002
  9.6000000000000000e+002
  9.5900000000000000e+002
  9.5800000000000000e+002
  9.6100000000000000e+002
  9.6500000000000000e+002
  9.6400000000000000e+002
  9.6800000000000000e+002
  9.6700000000000000e+002
  9.6800000000000000e+002
  9.6900000000000000e+002
  9.7100000000000000e+002
  9.7100000000000000e+002
  9.7000000000000000e+002
  9.6800000000000000e+002
  9.6600000000000000e+002
  9.6500000000000000e+002
  9.6500000000000000e+002
  9.6300000000000000e+002
  9.6000000000000000e+002
  9.6000000000000000e+002
  9.5700000000000000e+002
  9.5800000000000000e+002
  9.5700000000000000e+002
  9.5200000000000000e+002
  9.5300000000000000e+002
  9.5100000000000000e+002
  9.4800000000000000e+002
  9.4300000000000000e+002
  9.4300000000000000e+002
  9.4100000000000000e+002
  9.3600000000000000e+002
  9.3700000000000000e+002
  9.3500000000000000e+002
  9.3600000000000000e+002
  9.4000000000000000e+002
  9.3900000000000000e+002
  9.3500000000000000e+002
  9.3400000000000000e+002
  9.3200000000000000e+002
  9.3500000000000000e+002
  9.3400000000000000e+002
  9.3300000000000000e+002
  9.3100000000000000e+002
  9.3000000000000000e+002
  9.3100000000000000e+002
  9.3600000000000000e+002
  9.3600000000000000e+002
  9.3200000000000000e+002
  9.3100000000000000e+002
  9.3100000000000000e+002
  9.3300000000000000e+002
  9.3300000000000000e+002
  9.2800000000000000e+002
  9.2600000000000000e+002
  9.2800000000000000e+002
  9.2800000000000000e+002
  9.2300000000000000e+002
  9.2700000000000000e+002
  9.3200000000000000e+002
  9.3300000000000000e+002
  9.3100000000000000e+002
  9.2800000000000000e+002
  9.2600000000000000e+002
  9.3100000000000000e+002
  9.3700000000000000e+002
  9.3800000000000000e+002
  9.3300000000000000e+002
  9.2700000000000000e+002
  9.2600000000000000e+002
  9.3200000000000000e+002
  9.3500000000000000e+002
  9.3400000000000000e+002
  9.3000000000000000e+002
  9.2700000000000000e+002
  9.3000000000000000e+002
  9.3400000000000000e+002
  9.3500000000000000e+002
  9.3600000000000000e+002
  9.3900000000000000e+002
  9.3200000000000000e+002
  9.3200000000000000e+002
  9.3300000000000000e+002
  9.3300000000000000e+002
  9.3300000000000000e+002
  9.3400000000000000e+002
  9.3200000000000000e+002
  9.3300000000000000e+002
  9.3600000000000000e+002
  9.3800000000000000e+002
  9.3800000000000000e+002
  9.3500000000000000e+002
  9.3400000000000000e+002
  9.3400000000000000e+002
  9.3500000000000000e+002
  9.3500000000000000e+002
  9.3200000000000000e+002
  9.3000000000000000e+002
  9.3200000000000000e+002
  9.3100000000000000e+002
  9.3400000000000000e+002
  9.3500000000000000e+002
  9.3800000000000000e+002
  9.3500000000000000e+002
  9.3200000000000000e+002
  9.3200000000000000e+002
  9.3700000000000000e+002
  9.3600000000000000e+002
  9.3800000000000000e+002
  9.3900000000000000e+002
  9.3500000000000000e+002
  9.3300000000000000e+002
  9.3100000000000000e+002
  9.3100000000000000e+002
  9.3000000000000000e+002
  9.3200000000000000e+002
  9.3300000000000000e+002
  9.3500000000000000e+002
  9.3500000000000000e+002
  9.3300000000000000e+002
  9.3400000000000000e+002
  9.3500000000000000e+002
  9.3400000000000000e+002
  9.3000000000000000e+002
  9.2800000000000000e+002
  9.3300000000000000e+002
  9.3700000000000000e+002
  9.3600000000000000e+002
  9.3400000000000000e+002
  9.3000000000000000e+002
  9.3100000000000000e+002
  9.3500000000000000e+002
  9.3500000000000000e+002
  9.3100000000000000e+002
  9.3000000000000000e+002
  9.3100000000000000e+002
  9.3100000000000000e+002
  9.3100000000000000e+002
  9.2900000000000000e+002
  9.2800000000000000e+002
  9.2800000000000000e+002
  9.2900000000000000e+002
  9.2900000000000000e+002
  9.3300000000000000e+002
  9.3200000000000000e+002
  9.3000000000000000e+002
  9.2800000000000000e+002
  9.2800000000000000e+002
  9.3200000000000000e+002
  9.3200000000000000e+002
  9.3200000000000000e+002
  9.3200000000000000e+002
  9.3200000000000000e+002
  9.3000000000000000e+002
  9.3400000000000000e+002
  9.3600000000000000e+002
  9.4000000000000000e+002
  9.4100000000000000e+002
  9.3900000000000000e+002
  9.3900000000000000e+002
  9.4000000000000000e+002
  9.4300000000000000e+002
  9.4600000000000000e+002
  9.4400000000000000e+002
  9.4100000000000000e+002
  9.4400000000000000e+002
  9.5100000000000000e+002
  9.6000000000000000e+002
  9.6600000000000000e+002
  9.6300000000000000e+002
  9.5500000000000000e+002
  9.4700000000000000e+002
  9.5500000000000000e+002
  9.5600000000000000e+002
  9.5900000000000000e+002
  9.5400000000000000e+002
  9.4800000000000000e+002
  9.4400000000000000e+002
  9.4600000000000000e+002
  9.4800000000000000e+002
  9.4400000000000000e+002
  9.4300000000000000e+002
  9.3800000000000000e+002
  9.3400000000000000e+002
  9.3300000000000000e+002
  9.3400000000000000e+002
  9.3200000000000000e+002
  9.3000000000000000e+002
  9.2900000000000000e+002
  9.2600000000000000e+002
  9.2900000000000000e+002
  9.3000000000000000e+002
  9.3100000000000000e+002
  9.3100000000000000e+002
  9.2900000000000000e+002
  9.3000000000000000e+002
  9.3300000000000000e+002
  9.3200000000000000e+002
  9.2300000000000000e+002
  9.1400000000000000e+002
  9.1400000000000000e+002
  9.1700000000000000e+002
  9.2400000000000000e+002
  9.3100000000000000e+002
  9.3400000000000000e+002
  9.2900000000000000e+002
  9.2200000000000000e+002
  9.1700000000000000e+002
  9.1500000000000000e+002
  9.2000000000000000e+002
  9.1900000000000000e+002
  9.1900000000000000e+002
  9.1600000000000000e+002
  9.1700000000000000e+002
  9.3200000000000000e+002
  9.6200000000000000e+002
  1.0080000000000000e+003
  1.0610000000000000e+003
  1.1190000000000000e+003
  1.1800000000000000e+003
  1.2290000000000000e+003
  1.2370000000000000e+003
  1.1940000000000000e+003
  1.1270000000000000e+003
  1.0650000000000000e+003
  1.0050000000000000e+003
  9.6600000000000000e+002
  9.4800000000000000e+002
  9.4300000000000000e+002
  9.3100000000000000e+002
  9.2700000000000000e+002
  9.2300000000000000e+002
  9.2300000000000000e+002
  9.2300000000000000e+002
  9.2300000000000000e+002
  9.1600000000000000e+002
  9.1100000000000000e+002
  9.0600000000000000e+002
  9.0900000000000000e+002
  9.1300000000000000e+002
  9.1300000000000000e+002
  9.1200000000000000e+002
  9.1100000000000000e+002
  9.0700000000000000e+002
  9.0900000000000000e+002
  9.1100000000000000e+002
  9.1000000000000000e+002
  9.1200000000000000e+002
  9.1100000000000000e+002
  9.1000000000000000e+002
  9.1000000000000000e+002
  9.1200000000000000e+002
  9.1400000000000000e+002
  9.1000000000000000e+002
  9.1200000000000000e+002
  9.0800000000000000e+002
  9.1000000000000000e+002
  9.0900000000000000e+002
  9.1100000000000000e+002
  9.0900000000000000e+002
  9.1000000000000000e+002
  9.1000000000000000e+002
  9.0800000000000000e+002
  9.1000000000000000e+002
  9.1200000000000000e+002
  9.1100000000000000e+002
  9.1200000000000000e+002
  9.1100000000000000e+002
  9.1300000000000000e+002
  9.1300000000000000e+002
  9.1100000000000000e+002
  9.1300000000000000e+002
  9.1200000000000000e+002
  9.0900000000000000e+002
  9.1100000000000000e+002
  9.1400000000000000e+002
  9.1600000000000000e+002
  9.1800000000000000e+002
  9.1600000000000000e+002
  9.1000000000000000e+002
  9.1000000000000000e+002
  9.1100000000000000e+002
  9.1100000000000000e+002
  9.1300000000000000e+002
  9.1300000000000000e+002
  9.1300000000000000e+002
  9.1800000000000000e+002
  9.2000000000000000e+002
  9.1900000000000000e+002
  9.1900000000000000e+002
  9.1700000000000000e+002
  9.1800000000000000e+002
  9.2000000000000000e+002
  9.2400000000000000e+002
  9.2400000000000000e+002
  9.2100000000000000e+002
  9.1900000000000000e+002
  9.1900000000000000e+002
  9.2600000000000000e+002
  9.2900000000000000e+002
  9.3100000000000000e+002
  9.2800000000000000e+002
  9.3000000000000000e+002
  9.3000000000000000e+002
  9.3400000000000000e+002
  9.3500000000000000e+002
  9.3600000000000000e+002
  9.3700000000000000e+002
  9.3500000000000000e+002
  9.3500000000000000e+002
  9.3700000000000000e+002
  9.3700000000000000e+002
  9.4000000000000000e+002
  9.4500000000000000e+002
  9.4800000000000000e+002
  9.5300000000000000e+002
  9.5600000000000000e+002
  9.5800000000000000e+002
  9.5500000000000000e+002
  9.5600000000000000e+002
  9.5500000000000000e+002
  9.5500000000000000e+002
  9.5800000000000000e+002
  9.6200000000000000e+002
  9.6300000000000000e+002
  9.6500000000000000e+002
  9.6400000000000000e+002
  9.6100000000000000e+002
  9.6300000000000000e+002
  9.6800000000000000e+002
  9.6500000000000000e+002
  9.6400000000000000e+002
  9.6300000000000000e+002
  9.6200000000000000e+002
  9.6100000000000000e+002
  9.5900000000000000e+002
  9.6000000000000000e+002
  9.6000000000000000e+002
  9.5400000000000000e+002
  9.5200000000000000e+002
  9.5000000000000000e+002
  9.5000000000000000e+002
  9.5000000000000000e+002
  9.4700000000000000e+002
  9.4300000000000000e+002
  9.4200000000000000e+002
  9.4300000000000000e+002
  9.4200000000000000e+002
  9.4100000000000000e+002
  9.3700000000000000e+002
  9.3500000000000000e+002
  9.3000000000000000e+002
  9.3500000000000000e+002
  9.3500000000000000e+002
  9.3900000000000000e+002
  9.3300000000000000e+002
  9.3200000000000000e+002
  9.3100000000000000e+002
  9.3100000000000000e+002
  9.3100000000000000e+002
  9.3100000000000000e+002
  9.3300000000000000e+002
  9.3400000000000000e+002
  9.3200000000000000e+002
  9.3400000000000000e+002
  9.3500000000000000e+002
  9.3300000000000000e+002
  9.3100000000000000e+002
  9.3200000000000000e+002
  9.3100000000000000e+002
  9.3500000000000000e+002
  9.3800000000000000e+002
  9.3900000000000000e+002
  9.3500000000000000e+002
  9.3600000000000000e+002
  9.3400000000000000e+002
  9.3300000000000000e+002
  9.3700000000000000e+002
  9.3800000000000000e+002
  9.3800000000000000e+002
  9.3300000000000000e+002
  9.3100000000000000e+002
  9.3600000000000000e+002
  9.3900000000000000e+002
  9.4000000000000000e+002
  9.3600000000000000e+002
  9.3400000000000000e+002
  9.3700000000000000e+002
  9.4000000000000000e+002
  9.4400000000000000e+002
  9.4400000000000000e+002
  9.4200000000000000e+002
  9.3900000000000000e+002
  9.3900000000000000e+002
  9.4100000000000000e+002
  9.4100000000000000e+002
  9.3900000000000000e+002
  9.4100000000000000e+002
  9.4100000000000000e+002
  9.4100000000000000e+002
  9.4400000000000000e+002
  9.4400000000000000e+002
  9.4200000000000000e+002
  9.3900000000000000e+002
  9.3900000000000000e+002
  9.4000000000000000e+002
  9.4200000000000000e+002
  9.4400000000000000e+002
  9.4200000000000000e+002
  9.3900000000000000e+002
  9.3700000000000000e+002
  9.3600000000000000e+002
  9.4600000000000000e+002
  9.4700000000000000e+002
  9.5000000000000000e+002
  9.5200000000000000e+002
  9.5400000000000000e+002
  9.5300000000000000e+002
  9.4600000000000000e+002
  9.4200000000000000e+002
  9.3400000000000000e+002
  9.3200000000000000e+002
  9.3100000000000000e+002
  9.3100000000000000e+002
  9.3600000000000000e+002
  9.4600000000000000e+002
  9.5300000000000000e+002
  9.6300000000000000e+002
  9.6100000000000000e+002
  9.5000000000000000e+002
  9.3900000000000000e+002
  9.3700000000000000e+002
  9.3700000000000000e+002
  9.4000000000000000e+002
  9.4600000000000000e+002
  9.5000000000000000e+002
  9.5100000000000000e+002
  9.5400000000000000e+002
  9.4900000000000000e+002
  9.4600000000000000e+002
  9.3900000000000000e+002
  9.4000000000000000e+002
  9.4200000000000000e+002
  9.4300000000000000e+002
  9.4500000000000000e+002
  9.4500000000000000e+002
  9.4700000000000000e+002
  9.4600000000000000e+002
  9.4700000000000000e+002
  9.4800000000000000e+002
  9.4900000000000000e+002
  9.5100000000000000e+002
  9.5200000000000000e+002
  9.5300000000000000e+002
  9.5300000000000000e+002
  9.5400000000000000e+002
  9.5000000000000000e+002
  9.4900000000000000e+002
  9.4800000000000000e+002
  9.4700000000000000e+002
  9.5000000000000000e+002
  9.5300000000000000e+002
  9.5100000000000000e+002
  9.5000000000000000e+002
  9.4800000000000000e+002
  9.4800000000000000e+002
  9.5100000000000000e+002
  9.5600000000000000e+002
  9.5800000000000000e+002
  9.5700000000000000e+002
  9.5500000000000000e+002
  9.5400000000000000e+002
  9.5300000000000000e+002
  9.5900000000000000e+002
  9.6200000000000000e+002
  9.6000000000000000e+002
  9.5800000000000000e+002
  9.6000000000000000e+002
  9.6600000000000000e+002
  9.7300000000000000e+002
  9.7800000000000000e+002
  9.8600000000000000e+002
  9.8900000000000000e+002
  9.8700000000000000e+002
  9.8800000000000000e+002
  9.8400000000000000e+002
  9.8300000000000000e+002
  9.8000000000000000e+002
  9.7800000000000000e+002
  9.7700000000000000e+002
  9.7500000000000000e+002
  9.7400000000000000e+002
  9.7400000000000000e+002
  9.7300000000000000e+002
  9.7400000000000000e+002
  9.7400000000000000e+002
  9.7600000000000000e+002
  9.7300000000000000e+002
  9.7000000000000000e+002
  9.6900000000000000e+002
  9.6900000000000000e+002
  9.6700000000000000e+002
  9.6800000000000000e+002
  9.6300000000000000e+002
  9.5500000000000000e+002
  9.5100000000000000e+002
  9.5300000000000000e+002
  9.5100000000000000e+002
  9.5000000000000000e+002
  9.5300000000000000e+002
  9.4900000000000000e+002
  9.5100000000000000e+002
  9.4700000000000000e+002
  9.4800000000000000e+002
  9.4900000000000000e+002
  9.5200000000000000e+002
  9.5000000000000000e+002
  9.4900000000000000e+002
  9.4700000000000000e+002
  9.4900000000000000e+002
  9.5100000000000000e+002
  9.5500000000000000e+002
  9.5100000000000000e+002
  9.4700000000000000e+002
  9.4000000000000000e+002
  9.3600000000000000e+002
  9.3400000000000000e+002
  9.4800000000000000e+002
  9.8000000000000000e+002
  1.0260000000000000e+003
  1.0880000000000000e+003
  1.1630000000000000e+003
  1.2430000000000000e+003
  1.2970000000000000e+003
  1.2990000000000000e+003
  1.2500000000000000e+003
  1.1740000000000000e+003
  1.1020000000000000e+003
  1.0480000000000000e+003
  1.0210000000000000e+003
  1.0110000000000000e+003
  1.0040000000000000e+003
  9.9000000000000000e+002
  9.8400000000000000e+002
  9.7900000000000000e+002
  9.7700000000000000e+002
  9.7000000000000000e+002
  9.6300000000000000e+002
  9.5300000000000000e+002
  9.4900000000000000e+002
  9.4800000000000000e+002
  9.4500000000000000e+002
  9.4800000000000000e+002
  9.4500000000000000e+002
  9.4300000000000000e+002
  9.3900000000000000e+002
  9.4100000000000000e+002
  9.4200000000000000e+002
  9.4300000000000000e+002
  9.4400000000000000e+002
  9.4000000000000000e+002
  9.3800000000000000e+002
  9.4100000000000000e+002
  9.4100000000000000e+002
  9.3900000000000000e+002
  9.3700000000000000e+002
  9.3900000000000000e+002
  9.3800000000000000e+002
  9.4000000000000000e+002
  9.4200000000000000e+002
  9.4300000000000000e+002
  9.4100000000000000e+002
  9.4100000000000000e+002
  9.3900000000000000e+002
  9.4200000000000000e+002
  9.4400000000000000e+002
  9.4600000000000000e+002
  9.4300000000000000e+002
  9.4100000000000000e+002
  9.4000000000000000e+002
  9.4200000000000000e+002
  9.4600000000000000e+002
  9.4600000000000000e+002
  9.4500000000000000e+002
  9.4100000000000000e+002
  9.4000000000000000e+002
  9.4400000000000000e+002
  9.4500000000000000e+002
  9.4200000000000000e+002
  9.4000000000000000e+002
  9.4000000000000000e+002
  9.4100000000000000e+002
  9.4100000000000000e+002
  9.4600000000000000e+002
  9.4500000000000000e+002
  9.4600000000000000e+002
  9.4500000000000000e+002
  9.4600000000000000e+002
  9.4500000000000000e+002
  9.4600000000000000e+002
  9.4700000000000000e+002
  9.4700000000000000e+002
  9.4500000000000000e+002
  9.4700000000000000e+002
  9.4900000000000000e+002
  9.5200000000000000e+002
  9.4900000000000000e+002
  9.5000000000000000e+002
  9.5200000000000000e+002
  9.5300000000000000e+002
  9.5800000000000000e+002
  9.6000000000000000e+002
  9.6100000000000000e+002
  9.6000000000000000e+002
  9.5900000000000000e+002
  9.6000000000000000e+002
  9.6800000000000000e+002
  9.7200000000000000e+002
  9.7300000000000000e+002
  9.7200000000000000e+002
  9.7100000000000000e+002
  9.7200000000000000e+002
  9.7800000000000000e+002
  9.8300000000000000e+002
  9.8600000000000000e+002
  9.8600000000000000e+002
  9.8600000000000000e+002
  9.8700000000000000e+002
  9.9300000000000000e+002
  9.9700000000000000e+002
  1.0010000000000000e+003
  9.9900000000000000e+002
  9.9900000000000000e+002
  1.0020000000000000e+003
  1.0020000000000000e+003
  1.0030000000000000e+003
  1.0060000000000000e+003
  1.0060000000000000e+003
  1.0080000000000000e+003
  1.0080000000000000e+003
  1.0060000000000000e+003
  1.0110000000000000e+003
  1.0060000000000000e+003
  1.0060000000000000e+003
  1.0060000000000000e+003
  1.0040000000000000e+003
  1.0020000000000000e+003
  9.9900000000000000e+002
  9.9800000000000000e+002
  9.9500000000000000e+002
  9.9100000000000000e+002
  9.8600000000000000e+002
  9.8500000000000000e+002
  9.8400000000000000e+002
  9.8200000000000000e+002
  9.7800000000000000e+002
  9.7500000000000000e+002
  9.7200000000000000e+002
  9.7000000000000000e+002
  9.7100000000000000e+002
  9.7000000000000000e+002
  9.6800000000000000e+002
  9.6500000000000000e+002
  9.5900000000000000e+002
  9.6100000000000000e+002
  9.6200000000000000e+002
  9.6400000000000000e+002
  9.6600000000000000e+002
  9.6200000000000000e+002
  9.6000000000000000e+002
  9.6000000000000000e+002
  9.6300000000000000e+002
  9.6200000000000000e+002
  9.5800000000000000e+002
  9.5500000000000000e+002
  9.5300000000000000e+002
  9.5600000000000000e+002
  9.5800000000000000e+002
  9.5700000000000000e+002
  9.5900000000000000e+002
  9.5900000000000000e+002
  9.5800000000000000e+002
  9.5800000000000000e+002
  9.6000000000000000e+002
  9.5900000000000000e+002
  9.5800000000000000e+002
  9.5700000000000000e+002
  9.5700000000000000e+002
  9.5800000000000000e+002
  9.6100000000000000e+002
  9.5900000000000000e+002
  9.6000000000000000e+002
  9.6100000000000000e+002
  9.5900000000000000e+002
  9.6200000000000000e+002
  9.6100000000000000e+002
  9.6200000000000000e+002
  9.6500000000000000e+002
  9.6300000000000000e+002
  9.6100000000000000e+002
  9.5900000000000000e+002
  9.6200000000000000e+002
  9.6200000000000000e+002
  9.6300000000000000e+002
  9.6500000000000000e+002
  9.6200000000000000e+002
  9.6300000000000000e+002
  9.6500000000000000e+002
  9.6700000000000000e+002
  9.6700000000000000e+002
  9.6700000000000000e+002
  9.6400000000000000e+002
  9.6200000000000000e+002
  9.6400000000000000e+002
  9.6500000000000000e+002
  9.6800000000000000e+002
  9.6200000000000000e+002
  9.6200000000000000e+002
  9.6500000000000000e+002
  9.6900000000000000e+002
  9.6900000000000000e+002
  9.6600000000000000e+002
  9.6400000000000000e+002
  9.6200000000000000e+002
  9.6400000000000000e+002
  9.6900000000000000e+002
  9.6800000000000000e+002
  9.6700000000000000e+002
  9.6400000000000000e+002
  9.6200000000000000e+002
  9.6400000000000000e+002
  9.6800000000000000e+002
  9.6700000000000000e+002
  9.6400000000000000e+002
  9.6300000000000000e+002
  9.6200000000000000e+002
  9.6400000000000000e+002
  9.6500000000000000e+002
  9.6600000000000000e+002
  9.6700000000000000e+002
  9.6500000000000000e+002
  9.6500000000000000e+002
  9.6900000000000000e+002
  9.6800000000000000e+002
  9.6800000000000000e+002
  9.6400000000000000e+002
  9.6300000000000000e+002
  9.6400000000000000e+002
  9.6600000000000000e+002
  9.6700000000000000e+002
  9.6800000000000000e+002
  9.6700000000000000e+002
  9.6600000000000000e+002
  9.6400000000000000e+002
  9.6600000000000000e+002
  9.6500000000000000e+002
  9.6600000000000000e+002
  9.6600000000000000e+002
  9.6500000000000000e+002
  9.6400000000000000e+002
  9.6400000000000000e+002
  9.6500000000000000e+002
  9.6600000000000000e+002
  9.6500000000000000e+002
  9.6600000000000000e+002
  9.6200000000000000e+002
  9.6400000000000000e+002
  9.6600000000000000e+002
  9.6700000000000000e+002
  9.6700000000000000e+002
  9.6300000000000000e+002
  9.6400000000000000e+002
  9.6400000000000000e+002
  9.6500000000000000e+002
  9.6800000000000000e+002
  9.6700000000000000e+002
  9.6300000000000000e+002
  9.6400000000000000e+002
  9.6500000000000000e+002
  9.7000000000000000e+002
  9.7200000000000000e+002
  9.7200000000000000e+002
  9.7000000000000000e+002
  9.6700000000000000e+002
  9.7100000000000000e+002
  9.7400000000000000e+002
  9.7500000000000000e+002
  9.7300000000000000e+002
  9.7000000000000000e+002
  9.7000000000000000e+002
  9.7400000000000000e+002
  9.7800000000000000e+002
  9.8600000000000000e+002
  9.9400000000000000e+002
  9.9700000000000000e+002
  9.9700000000000000e+002
  9.9300000000000000e+002
  9.9400000000000000e+002
  9.9400000000000000e+002
  9.9400000000000000e+002
  9.9200000000000000e+002
  9.8700000000000000e+002
  9.8200000000000000e+002
  9.8300000000000000e+002
  9.8300000000000000e+002
  9.8100000000000000e+002
  9.7900000000000000e+002
  9.7800000000000000e+002
  9.8000000000000000e+002
  9.8200000000000000e+002
  9.7800000000000000e+002
  9.7400000000000000e+002
  9.6600000000000000e+002
  9.6400000000000000e+002
  9.6500000000000000e+002
  9.6300000000000000e+002
  9.6300000000000000e+002
  9.5800000000000000e+002
  9.5700000000000000e+002
  9.5700000000000000e+002
  9.5600000000000000e+002
  9.5700000000000000e+002
  9.5800000000000000e+002
  9.6000000000000000e+002
  9.6100000000000000e+002
  9.5600000000000000e+002
  9.5600000000000000e+002
  9.6100000000000000e+002
  9.6100000000000000e+002
  9.5700000000000000e+002
  9.5500000000000000e+002
  9.5400000000000000e+002
  9.5400000000000000e+002
  9.5700000000000000e+002
  9.5700000000000000e+002
  9.5800000000000000e+002
  9.5500000000000000e+002
  9.5300000000000000e+002
  9.5300000000000000e+002
  9.5100000000000000e+002
  9.5700000000000000e+002
  9.8300000000000000e+002
  1.0270000000000000e+003
  1.0880000000000000e+003
  1.1630000000000000e+003
  1.2390000000000000e+003
  1.2890000000000000e+003
  1.2850000000000000e+003
  1.2330000000000000e+003
  1.1620000000000000e+003
  1.0960000000000000e+003
  1.0450000000000000e+003
  1.0200000000000000e+003
  1.0130000000000000e+003
  1.0050000000000000e+003
  9.9500000000000000e+002
  9.8700000000000000e+002
  9.8300000000000000e+002
  9.8200000000000000e+002
  9.7700000000000000e+002
  9.7000000000000000e+002
  9.6700000000000000e+002
  9.6600000000000000e+002
  9.6400000000000000e+002
  9.6300000000000000e+002
  9.6000000000000000e+002
  9.6100000000000000e+002
  9.6300000000000000e+002
  9.6200000000000000e+002
  9.5200000000000000e+002
  9.3900000000000000e+002
  9.3000000000000000e+002
  9.2500000000000000e+002
  9.2500000000000000e+002
  9.2900000000000000e+002
  9.3300000000000000e+002
  9.3400000000000000e+002
  9.3400000000000000e+002
  9.3300000000000000e+002
  9.3400000000000000e+002
  9.3500000000000000e+002
  9.3900000000000000e+002
  9.4000000000000000e+002
  9.4000000000000000e+002
  9.4000000000000000e+002
  9.4000000000000000e+002
  9.4100000000000000e+002
  9.4100000000000000e+002
  9.4300000000000000e+002
  9.4100000000000000e+002
  9.3700000000000000e+002
  9.3700000000000000e+002
  9.4200000000000000e+002
  9.4400000000000000e+002
  9.4200000000000000e+002
  9.4200000000000000e+002
  9.4000000000000000e+002
  9.4100000000000000e+002
  9.4200000000000000e+002
  9.4100000000000000e+002
  9.4100000000000000e+002
  9.4000000000000000e+002
  9.4000000000000000e+002
  9.3700000000000000e+002
  9.3700000000000000e+002
  9.3800000000000000e+002
  9.3600000000000000e+002
  9.3700000000000000e+002
  9.3800000000000000e+002
  9.3800000000000000e+002
  9.4000000000000000e+002
  9.4300000000000000e+002
  9.4400000000000000e+002
  9.4000000000000000e+002
  9.3700000000000000e+002
  9.3500000000000000e+002
  9.4100000000000000e+002
  9.4300000000000000e+002
  9.4200000000000000e+002
  9.4100000000000000e+002
  9.4000000000000000e+002
  9.3700000000000000e+002
  9.4200000000000000e+002
  9.4400000000000000e+002
  9.4600000000000000e+002
  9.4600000000000000e+002
  9.4300000000000000e+002
  9.4500000000000000e+002
  9.5000000000000000e+002
  9.5100000000000000e+002
  9.5200000000000000e+002
  9.5200000000000000e+002
  9.5200000000000000e+002
  9.5800000000000000e+002
  9.6000000000000000e+002
  9.6100000000000000e+002
  9.5900000000000000e+002
  9.5800000000000000e+002
  9.6000000000000000e+002
  9.6000000000000000e+002
  9.6800000000000000e+002
  9.7400000000000000e+002
  9.7700000000000000e+002
  9.8200000000000000e+002
  9.8200000000000000e+002
  9.7900000000000000e+002
  9.8600000000000000e+002
  9.9100000000000000e+002
  9.9000000000000000e+002
  9.8800000000000000e+002
  9.8500000000000000e+002
  9.8200000000000000e+002
  9.8400000000000000e+002
  9.8900000000000000e+002
  9.9200000000000000e+002
  9.8900000000000000e+002
  9.8900000000000000e+002
  9.8800000000000000e+002
  9.9000000000000000e+002
  9.9100000000000000e+002
  9.9200000000000000e+002
  9.8900000000000000e+002
  9.8600000000000000e+002
  9.8500000000000000e+002
  9.8600000000000000e+002
  9.8000000000000000e+002
  9.7300000000000000e+002
  9.6400000000000000e+002
  9.5600000000000000e+002
  9.5700000000000000e+002
  9.6000000000000000e+002
  9.6100000000000000e+002
  9.5700000000000000e+002
  9.5500000000000000e+002
  9.5400000000000000e+002
  9.5400000000000000e+002
  9.5200000000000000e+002
  9.5100000000000000e+002
  9.5100000000000000e+002
  9.5100000000000000e+002
  9.5300000000000000e+002
  9.5000000000000000e+002
  9.5000000000000000e+002
  9.5100000000000000e+002
  9.5100000000000000e+002
  9.4900000000000000e+002
  9.4700000000000000e+002
  9.4700000000000000e+002
  9.5000000000000000e+002
  9.4800000000000000e+002
  9.4600000000000000e+002
  9.4300000000000000e+002
  9.4400000000000000e+002
  9.4300000000000000e+002
  9.4300000000000000e+002
  9.4700000000000000e+002
  9.4900000000000000e+002
  9.4700000000000000e+002
  9.4500000000000000e+002
  9.4100000000000000e+002
  9.4500000000000000e+002
  9.4900000000000000e+002
  9.5100000000000000e+002
  9.5000000000000000e+002
  9.4500000000000000e+002
  9.4600000000000000e+002
  9.4500000000000000e+002
  9.4800000000000000e+002
  9.4900000000000000e+002
  9.5000000000000000e+002
  9.4600000000000000e+002
  9.4300000000000000e+002
  9.4700000000000000e+002
  9.5000000000000000e+002
  9.5200000000000000e+002
  9.5200000000000000e+002
  9.5000000000000000e+002
  9.4900000000000000e+002
  9.4700000000000000e+002
  9.5100000000000000e+002
  9.5200000000000000e+002
  9.5200000000000000e+002
  9.5300000000000000e+002
  9.5300000000000000e+002
  9.5500000000000000e+002
  9.5500000000000000e+002
  9.5600000000000000e+002
  9.5600000000000000e+002
  9.5300000000000000e+002
  9.5000000000000000e+002
  9.5200000000000000e+002
  9.5300000000000000e+002
  9.5400000000000000e+002
  9.5700000000000000e+002
  9.5600000000000000e+002
  9.5700000000000000e+002
  9.5700000000000000e+002
  9.5600000000000000e+002
  9.5600000000000000e+002
  9.5100000000000000e+002
  9.5400000000000000e+002
  9.5700000000000000e+002
  9.5700000000000000e+002
  9.5900000000000000e+002
  9.5600000000000000e+002
  9.5300000000000000e+002
  9.4900000000000000e+002
  9.4900000000000000e+002
  9.5500000000000000e+002
  9.5900000000000000e+002
  9.5900000000000000e+002
  9.5600000000000000e+002
  9.5100000000000000e+002
  9.5000000000000000e+002
  9.4900000000000000e+002
  9.5300000000000000e+002
  9.5100000000000000e+002
  9.5000000000000000e+002
  9.4500000000000000e+002
  9.4700000000000000e+002
  9.5200000000000000e+002
  9.5500000000000000e+002
  9.5900000000000000e+002
  9.6100000000000000e+002
  9.6200000000000000e+002
  9.6300000000000000e+002
  9.7300000000000000e+002
  9.8200000000000000e+002
  9.7800000000000000e+002
  9.6600000000000000e+002
  9.5200000000000000e+002
  9.4300000000000000e+002
  9.3600000000000000e+002
  9.3300000000000000e+002
  9.3600000000000000e+002
  9.4000000000000000e+002
  9.4400000000000000e+002
  9.4700000000000000e+002
  9.5200000000000000e+002
  9.5800000000000000e+002
  9.6500000000000000e+002
  9.6400000000000000e+002
  9.5500000000000000e+002
  9.4400000000000000e+002
  9.4200000000000000e+002
  9.4800000000000000e+002
  9.5100000000000000e+002
  9.5000000000000000e+002
  9.4900000000000000e+002
  9.4800000000000000e+002
  9.5400000000000000e+002
  9.5600000000000000e+002
  9.5600000000000000e+002
  9.5800000000000000e+002
  9.5800000000000000e+002
  9.5800000000000000e+002
  9.6000000000000000e+002
  9.6000000000000000e+002
  9.5900000000000000e+002
  9.5600000000000000e+002
  9.5600000000000000e+002
  9.6100000000000000e+002
  9.6500000000000000e+002
  9.7400000000000000e+002
  9.8300000000000000e+002
  9.8900000000000000e+002
  9.8500000000000000e+002
  9.8100000000000000e+002
  9.8100000000000000e+002
  9.8100000000000000e+002
  9.8100000000000000e+002
  9.8000000000000000e+002
  9.7700000000000000e+002
  9.7400000000000000e+002
  9.7400000000000000e+002
  9.7400000000000000e+002
  9.7500000000000000e+002
  9.7400000000000000e+002
  9.7100000000000000e+002
  9.6700000000000000e+002
  9.6500000000000000e+002
  9.6300000000000000e+002
  9.6200000000000000e+002
  9.5500000000000000e+002
  9.5000000000000000e+002
  9.4900000000000000e+002
  9.5100000000000000e+002
  9.5300000000000000e+002
  9.5400000000000000e+002
  9.5400000000000000e+002
  9.5200000000000000e+002
  9.4800000000000000e+002
  9.5000000000000000e+002
  9.5200000000000000e+002
  9.5200000000000000e+002
  9.5100000000000000e+002
  9.4900000000000000e+002
  9.4600000000000000e+002
  9.4600000000000000e+002
  9.5100000000000000e+002
  9.5300000000000000e+002
  9.5200000000000000e+002
  9.4800000000000000e+002
  9.4800000000000000e+002
  9.4800000000000000e+002
  9.4700000000000000e+002
  9.4500000000000000e+002
  9.4200000000000000e+002
  9.3500000000000000e+002
  9.3600000000000000e+002
  9.5100000000000000e+002
  9.8900000000000000e+002
  1.0400000000000000e+003
  1.0940000000000000e+003
  1.1550000000000000e+003
  1.2190000000000000e+003
  1.2660000000000000e+003
  1.2680000000000000e+003
  1.2230000000000000e+003
  1.1580000000000000e+003
  1.0910000000000000e+003
  1.0330000000000000e+003
  1.0030000000000000e+003
  9.9900000000000000e+002
  9.9100000000000000e+002
  9.8000000000000000e+002
  9.7600000000000000e+002
  9.7000000000000000e+002
  9.6500000000000000e+002
  9.5800000000000000e+002
  9.5200000000000000e+002
  9.4700000000000000e+002
  9.4400000000000000e+002
  9.4300000000000000e+002
  9.4300000000000000e+002
  9.4200000000000000e+002
  9.3900000000000000e+002
  9.3400000000000000e+002
  9.2800000000000000e+002
  9.2700000000000000e+002
  9.3100000000000000e+002
  9.3400000000000000e+002
  9.3500000000000000e+002
  9.3700000000000000e+002
  9.3700000000000000e+002
  9.3500000000000000e+002
  9.3600000000000000e+002
  9.3600000000000000e+002
  9.3200000000000000e+002
  9.3100000000000000e+002
  9.2900000000000000e+002
  9.2900000000000000e+002
  9.3000000000000000e+002
  9.3400000000000000e+002
  9.3400000000000000e+002
  9.3400000000000000e+002
  9.3400000000000000e+002
  9.3400000000000000e+002
  9.3700000000000000e+002
  9.3800000000000000e+002
  9.3500000000000000e+002
  9.3300000000000000e+002
  9.3100000000000000e+002
  9.2900000000000000e+002
  9.3100000000000000e+002
  9.3300000000000000e+002
  9.3200000000000000e+002
  9.3300000000000000e+002
  9.2900000000000000e+002
  9.2900000000000000e+002
  9.3000000000000000e+002
  9.3400000000000000e+002
  9.3700000000000000e+002
  9.3600000000000000e+002
  9.3600000000000000e+002
  9.3300000000000000e+002
  9.3400000000000000e+002
  9.3600000000000000e+002
  9.4100000000000000e+002
  9.3800000000000000e+002
  9.3600000000000000e+002
  9.3500000000000000e+002
  9.3700000000000000e+002
  9.3900000000000000e+002
  9.4000000000000000e+002
  9.4100000000000000e+002
  9.3900000000000000e+002
  9.3900000000000000e+002
  9.4000000000000000e+002
  9.4200000000000000e+002
  9.4300000000000000e+002
  9.4300000000000000e+002
  9.4300000000000000e+002
  9.4300000000000000e+002
  9.4500000000000000e+002
  9.4800000000000000e+002
  9.5000000000000000e+002
  9.5200000000000000e+002
  9.5000000000000000e+002
  9.5000000000000000e+002
  9.5300000000000000e+002
  9.5800000000000000e+002
  9.6100000000000000e+002
  9.6000000000000000e+002
  9.6000000000000000e+002
  9.5900000000000000e+002
  9.6200000000000000e+002
  9.6500000000000000e+002
  9.6600000000000000e+002
  9.6700000000000000e+002
  9.6700000000000000e+002
  9.6600000000000000e+002
  9.6900000000000000e+002
  9.7300000000000000e+002
  9.7600000000000000e+002
  9.8000000000000000e+002
  9.8100000000000000e+002
  9.8100000000000000e+002
  9.8600000000000000e+002
  9.8900000000000000e+002
  9.8900000000000000e+002
  9.8500000000000000e+002
  9.8400000000000000e+002
  9.8500000000000000e+002
  9.9300000000000000e+002
  9.9800000000000000e+002
  1.0000000000000000e+003
  1.0020000000000000e+003
  1.0020000000000000e+003
  1.0020000000000000e+003
  1.0030000000000000e+003
  9.9900000000000000e+002
  9.9500000000000000e+002
  9.9200000000000000e+002
  9.8800000000000000e+002
  9.8700000000000000e+002
  9.8700000000000000e+002
  9.8900000000000000e+002
  9.9100000000000000e+002
  9.9000000000000000e+002
  9.8300000000000000e+002
  9.7500000000000000e+002
  9.7200000000000000e+002
  9.7000000000000000e+002
  9.7000000000000000e+002
  9.6800000000000000e+002
  9.6700000000000000e+002
  9.6400000000000000e+002
  9.6500000000000000e+002
  9.6400000000000000e+002
  9.6400000000000000e+002
  9.6100000000000000e+002
  9.6000000000000000e+002
  9.5800000000000000e+002
  9.6300000000000000e+002
  9.6400000000000000e+002
  9.6000000000000000e+002
  9.6000000000000000e+002
  9.6100000000000000e+002
  9.5800000000000000e+002
  9.6000000000000000e+002
  9.6200000000000000e+002
  9.6000000000000000e+002
  9.5800000000000000e+002
  9.5600000000000000e+002
  9.5700000000000000e+002
  9.5800000000000000e+002
  9.6100000000000000e+002
  9.6200000000000000e+002
  9.6200000000000000e+002
  9.5800000000000000e+002
  9.5700000000000000e+002
  9.5900000000000000e+002
  9.6000000000000000e+002
  9.6300000000000000e+002
  9.5800000000000000e+002
  9.5800000000000000e+002
  9.5800000000000000e+002
  9.6100000000000000e+002
  9.6500000000000000e+002
  9.6600000000000000e+002
  9.6400000000000000e+002
  9.6400000000000000e+002
  9.5900000000000000e+002
  9.6400000000000000e+002
  9.6500000000000000e+002
  9.6700000000000000e+002
  9.6400000000000000e+002
  9.6300000000000000e+002
  9.6500000000000000e+002
  9.6500000000000000e+002
  9.6800000000000000e+002
  9.7100000000000000e+002
  9.6900000000000000e+002
  9.6400000000000000e+002
  9.6300000000000000e+002
  9.6100000000000000e+002
  9.6100000000000000e+002
  9.6400000000000000e+002
  9.6200000000000000e+002
  9.6300000000000000e+002
  9.6600000000000000e+002
  9.6800000000000000e+002
  9.7100000000000000e+002
  9.6500000000000000e+002
  9.6700000000000000e+002
  9.6200000000000000e+002
  9.6600000000000000e+002
  9.6900000000000000e+002
  9.7000000000000000e+002
  9.6900000000000000e+002
  9.7000000000000000e+002
  9.6800000000000000e+002
  9.6200000000000000e+002
  9.6400000000000000e+002
  9.6600000000000000e+002
  9.6500000000000000e+002
  9.6800000000000000e+002
  9.6600000000000000e+002
  9.6500000000000000e+002
  9.6800000000000000e+002
  9.7100000000000000e+002
  9.7000000000000000e+002
  9.6500000000000000e+002
  9.6300000000000000e+002
  9.6200000000000000e+002
  9.6300000000000000e+002
  9.6800000000000000e+002
  9.6700000000000000e+002
  9.6600000000000000e+002
  9.6500000000000000e+002
  9.6400000000000000e+002
  9.6500000000000000e+002
  9.6600000000000000e+002
  9.6800000000000000e+002
  9.7000000000000000e+002
  9.6800000000000000e+002
  9.6700000000000000e+002
  9.6800000000000000e+002
  9.7000000000000000e+002
  9.6700000000000000e+002
  9.6500000000000000e+002
  9.6500000000000000e+002
  9.6400000000000000e+002
  9.6500000000000000e+002
  9.6700000000000000e+002
  9.6800000000000000e+002
  9.6700000000000000e+002
  9.6600000000000000e+002
  9.6600000000000000e+002
  9.6900000000000000e+002
  9.6900000000000000e+002
  9.7000000000000000e+002
  9.6500000000000000e+002
  9.6000000000000000e+002
  9.5800000000000000e+002
  9.6100000000000000e+002
  9.6200000000000000e+002
  9.6400000000000000e+002
  9.6300000000000000e+002
  9.6300000000000000e+002
  9.6300000000000000e+002
  9.6400000000000000e+002
  9.6800000000000000e+002
  9.6800000000000000e+002
  9.6600000000000000e+002
  9.6500000000000000e+002
  9.6200000000000000e+002
  9.6600000000000000e+002
  9.6600000000000000e+002
  9.6900000000000000e+002
  9.7000000000000000e+002
  9.6900000000000000e+002
  9.6700000000000000e+002
  9.6800000000000000e+002
  9.7000000000000000e+002
  9.7100000000000000e+002
  9.7000000000000000e+002
  9.6800000000000000e+002
  9.6900000000000000e+002
  9.7400000000000000e+002
  9.7500000000000000e+002
  9.7200000000000000e+002
  9.7100000000000000e+002
  9.7100000000000000e+002
  9.7400000000000000e+002
  9.8200000000000000e+002
  9.8900000000000000e+002
  9.9500000000000000e+002
  1.0000000000000000e+003
  1.0030000000000000e+003
  1.0010000000000000e+003
  1.0010000000000000e+003
  9.9800000000000000e+002
  1.0000000000000000e+003
  9.9700000000000000e+002
  9.9700000000000000e+002
  9.9100000000000000e+002
  9.9100000000000000e+002
  9.8800000000000000e+002
  9.8700000000000000e+002
  9.8300000000000000e+002
  9.8500000000000000e+002
  9.8200000000000000e+002
  9.8300000000000000e+002
  9.8200000000000000e+002
  9.7900000000000000e+002
  9.7600000000000000e+002
  9.7000000000000000e+002
  9.6600000000000000e+002
  9.6400000000000000e+002
  9.6300000000000000e+002
  9.6300000000000000e+002
  9.6000000000000000e+002
  9.5900000000000000e+002
  9.5700000000000000e+002
  9.6100000000000000e+002
  9.6200000000000000e+002
  9.6100000000000000e+002
  9.6000000000000000e+002
  9.6000000000000000e+002
  9.5600000000000000e+002
  9.6100000000000000e+002
  9.6200000000000000e+002
  9.6200000000000000e+002
  9.5900000000000000e+002
  9.5900000000000000e+002
  9.5700000000000000e+002
  9.5900000000000000e+002
  9.6400000000000000e+002
  9.6400000000000000e+002
  9.6100000000000000e+002
  9.5700000000000000e+002
  9.5700000000000000e+002
  9.5600000000000000e+002
  9.5300000000000000e+002
  9.4800000000000000e+002
  9.4700000000000000e+002
  9.5000000000000000e+002
  9.6400000000000000e+002
  9.9800000000000000e+002
  1.0380000000000000e+003
  1.0820000000000000e+003
  1.1330000000000000e+003
  1.1900000000000000e+003
  1.2360000000000000e+003
  1.2530000000000000e+003
  1.2270000000000000e+003
  1.1710000000000000e+003
  1.1090000000000000e+003
  1.0570000000000000e+003
  1.0160000000000000e+003
  9.9500000000000000e+002
  9.9300000000000000e+002
  9.9000000000000000e+002
  9.8700000000000000e+002
  9.8200000000000000e+002
  9.7500000000000000e+002
  9.6800000000000000e+002
  9.6600000000000000e+002
  9.6100000000000000e+002
  9.5500000000000000e+002
  9.5000000000000000e+002
  9.4500000000000000e+002
  9.3700000000000000e+002
  9.3800000000000000e+002
  9.3800000000000000e+002
  9.4000000000000000e+002
  9.4000000000000000e+002
  9.3500000000000000e+002
  9.3600000000000000e+002
  9.3700000000000000e+002
  9.3900000000000000e+002
  9.3800000000000000e+002
  9.3600000000000000e+002
  9.3600000000000000e+002
  9.3800000000000000e+002
  9.3800000000000000e+002
  9.3700000000000000e+002
  9.3600000000000000e+002
  9.3300000000000000e+002
  9.3300000000000000e+002
  9.3500000000000000e+002
  9.3700000000000000e+002
  9.3900000000000000e+002
  9.4000000000000000e+002
  9.4000000000000000e+002
  9.3800000000000000e+002
  9.3600000000000000e+002
  9.4100000000000000e+002
  9.4100000000000000e+002
  9.3800000000000000e+002
  9.3700000000000000e+002
  9.3600000000000000e+002
  9.3700000000000000e+002
  9.3800000000000000e+002
  9.4100000000000000e+002
  9.4000000000000000e+002
  9.4000000000000000e+002
  9.3800000000000000e+002
  9.4000000000000000e+002
  9.4200000000000000e+002
  9.4300000000000000e+002
  9.4200000000000000e+002
  9.4200000000000000e+002
  9.3900000000000000e+002
  9.4200000000000000e+002
  9.4600000000000000e+002
  9.4800000000000000e+002
  9.4700000000000000e+002
  9.4300000000000000e+002
  9.4100000000000000e+002
  9.4100000000000000e+002
  9.4200000000000000e+002
  9.4300000000000000e+002
  9.4400000000000000e+002
  9.4200000000000000e+002
  9.4000000000000000e+002
  9.4200000000000000e+002
  9.4200000000000000e+002
  9.4500000000000000e+002
  9.4500000000000000e+002
  9.4300000000000000e+002
  9.4400000000000000e+002
  9.4600000000000000e+002
  9.4800000000000000e+002
  9.4900000000000000e+002
  9.4900000000000000e+002
  9.4800000000000000e+002
  9.4900000000000000e+002
  9.5000000000000000e+002
  9.5100000000000000e+002
  9.5300000000000000e+002
  9.5400000000000000e+002
  9.5400000000000000e+002
  9.5300000000000000e+002
  9.5400000000000000e+002
  9.5700000000000000e+002
  9.6100000000000000e+002
  9.6300000000000000e+002
  9.6400000000000000e+002
  9.6400000000000000e+002
  9.6800000000000000e+002
  9.7100000000000000e+002
  9.7300000000000000e+002
  9.7100000000000000e+002
  9.7200000000000000e+002
  9.7100000000000000e+002
  9.7000000000000000e+002
  9.7500000000000000e+002
  9.7900000000000000e+002
  9.7700000000000000e+002
  9.8100000000000000e+002
  9.8100000000000000e+002
  9.8300000000000000e+002
  9.8600000000000000e+002
  9.8900000000000000e+002
  9.8900000000000000e+002
  9.8800000000000000e+002
  9.8900000000000000e+002
  9.9000000000000000e+002
  9.9400000000000000e+002
  9.9600000000000000e+002
  9.9500000000000000e+002
  9.9400000000000000e+002
  9.9200000000000000e+002
  9.9400000000000000e+002
  9.9000000000000000e+002
  9.9000000000000000e+002
  9.8900000000000000e+002
  9.8200000000000000e+002
  9.7600000000000000e+002
  9.7400000000000000e+002
  9.7400000000000000e+002
  9.7600000000000000e+002
  9.7500000000000000e+002
  9.7400000000000000e+002
  9.6900000000000000e+002
  9.7200000000000000e+002
  9.6900000000000000e+002
  9.6600000000000000e+002
  9.6300000000000000e+002
  9.6100000000000000e+002
  9.5800000000000000e+002
  9.6000000000000000e+002
  9.5800000000000000e+002
  9.5900000000000000e+002
  9.6300000000000000e+002
  9.6100000000000000e+002
  9.5900000000000000e+002
  9.5900000000000000e+002
  9.5900000000000000e+002
  9.5800000000000000e+002
  9.6000000000000000e+002
  9.5600000000000000e+002
  9.5100000000000000e+002
  9.5400000000000000e+002
  9.5300000000000000e+002
  9.5300000000000000e+002
  9.5400000000000000e+002
  9.5300000000000000e+002
  9.5200000000000000e+002
  9.5300000000000000e+002
  9.5900000000000000e+002
  9.6300000000000000e+002
  9.6000000000000000e+002
  9.5900000000000000e+002
  9.5600000000000000e+002
  9.5600000000000000e+002
  9.5700000000000000e+002
  9.6000000000000000e+002
  9.5800000000000000e+002
  9.5500000000000000e+002
  9.5500000000000000e+002
  9.5800000000000000e+002
  9.6200000000000000e+002
  9.6100000000000000e+002
  9.5900000000000000e+002
  9.5700000000000000e+002
  9.5500000000000000e+002
  9.5700000000000000e+002
  9.6000000000000000e+002
  9.5900000000000000e+002
  9.5700000000000000e+002
  9.5500000000000000e+002
  9.5400000000000000e+002
  9.5700000000000000e+002
  9.5700000000000000e+002
  9.6100000000000000e+002
  9.6000000000000000e+002
  9.6100000000000000e+002
  9.5900000000000000e+002
  9.6200000000000000e+002
  9.6200000000000000e+002
  9.6300000000000000e+002
  9.6300000000000000e+002
  9.6200000000000000e+002
  9.5800000000000000e+002
  9.5900000000000000e+002
  9.6100000000000000e+002
  9.6500000000000000e+002
  9.6500000000000000e+002
  9.6400000000000000e+002
  9.6200000000000000e+002
  9.6500000000000000e+002
  9.6600000000000000e+002
  9.6600000000000000e+002
  9.6100000000000000e+002
  9.6100000000000000e+002
  9.6200000000000000e+002
  9.6800000000000000e+002
  9.6800000000000000e+002
  9.6800000000000000e+002
  9.6300000000000000e+002
  9.6200000000000000e+002
  9.5900000000000000e+002
  9.5700000000000000e+002
  9.5700000000000000e+002
  9.6100000000000000e+002
  9.6000000000000000e+002
  9.6100000000000000e+002
  9.6000000000000000e+002
  9.6500000000000000e+002
  9.6700000000000000e+002
  9.6700000000000000e+002
  9.6600000000000000e+002
  9.6300000000000000e+002
  9.6200000000000000e+002
  9.6200000000000000e+002
  9.6500000000000000e+002
  9.6300000000000000e+002
  9.6200000000000000e+002
  9.6000000000000000e+002
  9.6000000000000000e+002
  9.5900000000000000e+002
  9.6000000000000000e+002
  9.5900000000000000e+002
  9.6100000000000000e+002
  9.6200000000000000e+002
  9.6200000000000000e+002
  9.5800000000000000e+002
  9.6100000000000000e+002
  9.5800000000000000e+002
  9.6100000000000000e+002
  9.5800000000000000e+002
  9.5900000000000000e+002
  9.6000000000000000e+002
  9.6300000000000000e+002
  9.6100000000000000e+002
  9.6100000000000000e+002
  9.6100000000000000e+002
  9.5700000000000000e+002
  9.5900000000000000e+002
  9.5900000000000000e+002
  9.6000000000000000e+002
  9.6200000000000000e+002
  9.6100000000000000e+002
  9.6000000000000000e+002
  9.6000000000000000e+002
  9.6200000000000000e+002
  9.6400000000000000e+002
  9.6500000000000000e+002
  9.6000000000000000e+002
  9.5700000000000000e+002
  9.6300000000000000e+002
  9.6900000000000000e+002
  9.7000000000000000e+002
  9.7000000000000000e+002
  9.6800000000000000e+002
  9.6300000000000000e+002
  9.6300000000000000e+002
  9.6900000000000000e+002
  9.6900000000000000e+002
  9.6900000000000000e+002
  9.6700000000000000e+002
  9.6600000000000000e+002
  9.7000000000000000e+002
  9.8100000000000000e+002
  9.8400000000000000e+002
  9.8700000000000000e+002
  9.9300000000000000e+002
  9.9700000000000000e+002
  9.9500000000000000e+002
  9.8900000000000000e+002
  9.8500000000000000e+002
  9.8100000000000000e+002
  9.7800000000000000e+002
  9.7500000000000000e+002
  9.7600000000000000e+002
  9.7600000000000000e+002
  9.7800000000000000e+002
  9.7800000000000000e+002
  9.7600000000000000e+002
  9.7300000000000000e+002
  9.7300000000000000e+002
  9.7000000000000000e+002
  9.6800000000000000e+002
  9.6700000000000000e+002
  9.6400000000000000e+002
  9.6100000000000000e+002
  9.5600000000000000e+002
  9.5600000000000000e+002
  9.5600000000000000e+002
  9.5800000000000000e+002
  9.5600000000000000e+002
  9.5200000000000000e+002
  9.5400000000000000e+002
  9.5700000000000000e+002
  9.6000000000000000e+002
  9.5500000000000000e+002
  9.5200000000000000e+002
  9.5000000000000000e+002
  9.4900000000000000e+002
  9.4700000000000000e+002
  9.5000000000000000e+002
  9.5300000000000000e+002
  9.5200000000000000e+002
  9.4900000000000000e+002
  9.4700000000000000e+002
  9.5200000000000000e+002
  9.5800000000000000e+002
  9.5800000000000000e+002
  9.5500000000000000e+002
  9.4700000000000000e+002
  9.4400000000000000e+002
  9.4100000000000000e+002
  9.4100000000000000e+002
  9.4000000000000000e+002
  9.4700000000000000e+002
  9.6800000000000000e+002
  1.0080000000000000e+003
  1.0550000000000000e+003
  1.1090000000000000e+003
  1.1730000000000000e+003
  1.2300000000000000e+003
  1.2570000000000000e+003
  1.2410000000000000e+003
  1.1940000000000000e+003
  1.1380000000000000e+003
  1.0840000000000000e+003
  1.0300000000000000e+003
  9.9500000000000000e+002
  9.8500000000000000e+002
  9.8000000000000000e+002
  9.7100000000000000e+002
  9.6300000000000000e+002
  9.5800000000000000e+002
  9.5700000000000000e+002
  9.5300000000000000e+002
  9.4800000000000000e+002
  9.4000000000000000e+002
  9.3500000000000000e+002
  9.3400000000000000e+002
  9.3200000000000000e+002
  9.3500000000000000e+002
  9.3700000000000000e+002
  9.3400000000000000e+002
  9.3400000000000000e+002
  9.3100000000000000e+002
  9.2900000000000000e+002
  9.2900000000000000e+002
  9.2900000000000000e+002
  9.2800000000000000e+002
  9.3000000000000000e+002
  9.3200000000000000e+002
  9.3100000000000000e+002
  9.3200000000000000e+002
  9.3600000000000000e+002
  9.3800000000000000e+002
  9.3800000000000000e+002
  9.3600000000000000e+002
  9.3400000000000000e+002
  9.3100000000000000e+002
  9.2800000000000000e+002
  9.2700000000000000e+002
  9.2700000000000000e+002
  9.2900000000000000e+002
  9.2800000000000000e+002
  9.2900000000000000e+002
  9.3100000000000000e+002
  9.3600000000000000e+002
  9.3400000000000000e+002
  9.3300000000000000e+002
  9.3300000000000000e+002
  9.3100000000000000e+002
  9.3400000000000000e+002
  9.3400000000000000e+002
  9.3100000000000000e+002
  9.2700000000000000e+002
  9.2700000000000000e+002
  9.2900000000000000e+002
  9.3000000000000000e+002
  9.3100000000000000e+002
  9.3100000000000000e+002
  9.3000000000000000e+002
  9.3000000000000000e+002
  9.3300000000000000e+002
  9.3400000000000000e+002
  9.3600000000000000e+002
  9.3600000000000000e+002
  9.3200000000000000e+002
  9.2900000000000000e+002
  9.3500000000000000e+002
  9.3500000000000000e+002
  9.4000000000000000e+002
  9.4000000000000000e+002
  9.4000000000000000e+002
  9.3800000000000000e+002
  9.3700000000000000e+002
  9.4000000000000000e+002
  9.4200000000000000e+002
  9.4200000000000000e+002
  9.4300000000000000e+002
  9.4300000000000000e+002
  9.4500000000000000e+002
  9.4700000000000000e+002
  9.4900000000000000e+002
  9.5100000000000000e+002
  9.4800000000000000e+002
  9.4700000000000000e+002
  9.5100000000000000e+002
  9.5400000000000000e+002
  9.5500000000000000e+002
  9.5700000000000000e+002
  9.5700000000000000e+002
  9.5800000000000000e+002
  9.6200000000000000e+002
  9.6300000000000000e+002
  9.6700000000000000e+002
  9.6900000000000000e+002
  9.6900000000000000e+002
  9.6800000000000000e+002
  9.7100000000000000e+002
  9.7300000000000000e+002
  9.7700000000000000e+002
  9.8400000000000000e+002
  9.8000000000000000e+002
  9.7800000000000000e+002
  9.7800000000000000e+002
  9.7900000000000000e+002
  9.8400000000000000e+002
  9.8600000000000000e+002
  9.8700000000000000e+002
  9.8400000000000000e+002
  9.8500000000000000e+002
  9.8700000000000000e+002
  9.8900000000000000e+002
  9.8800000000000000e+002
  9.8800000000000000e+002
  9.8700000000000000e+002
  9.8600000000000000e+002
  9.8900000000000000e+002
  9.8700000000000000e+002
  9.8400000000000000e+002
  9.7900000000000000e+002
  9.7500000000000000e+002
  9.7400000000000000e+002
  9.7500000000000000e+002
  9.7700000000000000e+002
  9.7500000000000000e+002
  9.6900000000000000e+002
  9.6600000000000000e+002
  9.6400000000000000e+002
  9.6500000000000000e+002
  9.6300000000000000e+002
  9.6300000000000000e+002
  9.6100000000000000e+002
  9.5700000000000000e+002
  9.5700000000000000e+002
  9.5600000000000000e+002
  9.5900000000000000e+002
  9.5700000000000000e+002
  9.5300000000000000e+002
  9.5100000000000000e+002
  9.5100000000000000e+002
  9.5300000000000000e+002
  9.5600000000000000e+002
  9.5300000000000000e+002
  9.5400000000000000e+002
  9.5200000000000000e+002
  9.5200000000000000e+002
  9.5400000000000000e+002
  9.5100000000000000e+002
  9.5000000000000000e+002
  9.5000000000000000e+002
  9.5000000000000000e+002
  9.5100000000000000e+002
  9.5400000000000000e+002
  9.5500000000000000e+002
  9.5300000000000000e+002
  9.4900000000000000e+002
  9.4700000000000000e+002
  9.4600000000000000e+002
  9.5100000000000000e+002
  9.5500000000000000e+002
  9.5600000000000000e+002
  9.5400000000000000e+002
  9.5200000000000000e+002
  9.5400000000000000e+002
  9.5500000000000000e+002
  9.5800000000000000e+002
  9.5600000000000000e+002
  9.5500000000000000e+002
  9.5100000000000000e+002
  9.5400000000000000e+002
  9.5800000000000000e+002
  9.6100000000000000e+002
  9.5900000000000000e+002
  9.5800000000000000e+002
  9.5500000000000000e+002
  9.5700000000000000e+002
  9.5800000000000000e+002
  9.6000000000000000e+002
  9.6100000000000000e+002
  9.5700000000000000e+002
  9.5800000000000000e+002
  9.5700000000000000e+002
  9.6000000000000000e+002
  9.6000000000000000e+002
  9.6100000000000000e+002
  9.6000000000000000e+002
  9.6000000000000000e+002
  9.5900000000000000e+002
  9.5900000000000000e+002
  9.5900000000000000e+002
  9.6000000000000000e+002
  9.5900000000000000e+002
  9.5700000000000000e+002
  9.5900000000000000e+002
  9.6000000000000000e+002
  9.6200000000000000e+002
  9.6100000000000000e+002
  9.6000000000000000e+002
  9.5600000000000000e+002
  9.6000000000000000e+002
  9.6000000000000000e+002
  9.6300000000000000e+002
  9.6200000000000000e+002
  9.6100000000000000e+002
  9.5600000000000000e+002
  9.5500000000000000e+002
  9.6000000000000000e+002
  9.5800000000000000e+002
  9.6100000000000000e+002
  9.6100000000000000e+002
  9.5800000000000000e+002
  9.5800000000000000e+002
  9.5800000000000000e+002
  9.5700000000000000e+002
  9.5700000000000000e+002
  9.6000000000000000e+002
  9.5800000000000000e+002
  9.5900000000000000e+002
  9.6000000000000000e+002
  9.6100000000000000e+002
  9.5900000000000000e+002
  9.6000000000000000e+002
  9.5600000000000000e+002
  9.5800000000000000e+002
  9.5800000000000000e+002
  9.6000000000000000e+002
  9.5800000000000000e+002
  9.5500000000000000e+002
  9.5700000000000000e+002
  9.5600000000000000e+002
  9.5900000000000000e+002
  9.6000000000000000e+002
  9.6100000000000000e+002
  9.6200000000000000e+002
  9.5800000000000000e+002
  9.5900000000000000e+002
  9.6000000000000000e+002
  9.6000000000000000e+002
  9.5900000000000000e+002
  9.5800000000000000e+002
  9.5500000000000000e+002
  9.5600000000000000e+002
  9.5900000000000000e+002
  9.6000000000000000e+002
  9.5700000000000000e+002
  9.5800000000000000e+002
  9.5500000000000000e+002
  9.5700000000000000e+002
  9.5900000000000000e+002
  9.6200000000000000e+002
  9.6100000000000000e+002
  9.6000000000000000e+002
  9.5700000000000000e+002
  9.5600000000000000e+002
  9.6000000000000000e+002
  9.6000000000000000e+002
  9.6000000000000000e+002
  9.6200000000000000e+002
  9.6200000000000000e+002
  9.6400000000000000e+002
  9.6400000000000000e+002
  9.6200000000000000e+002
  9.6100000000000000e+002
  9.5900000000000000e+002
  9.6000000000000000e+002
  9.6200000000000000e+002
  9.6700000000000000e+002
  9.7000000000000000e+002
  9.6700000000000000e+002
  9.6700000000000000e+002
  9.6400000000000000e+002
  9.6600000000000000e+002
  9.7200000000000000e+002
  9.7700000000000000e+002
  9.8100000000000000e+002
  9.8600000000000000e+002
  9.9000000000000000e+002
  9.9600000000000000e+002
  9.9700000000000000e+002
  9.9600000000000000e+002
  9.9000000000000000e+002
  9.9100000000000000e+002
  9.8900000000000000e+002
  9.8700000000000000e+002
  9.8500000000000000e+002
  9.8400000000000000e+002
  9.8300000000000000e+002
  9.7900000000000000e+002
  9.7900000000000000e+002
  9.8000000000000000e+002
  9.8100000000000000e+002
  9.7900000000000000e+002
  9.7700000000000000e+002
  9.7200000000000000e+002
  9.6800000000000000e+002
  9.6800000000000000e+002
  9.6500000000000000e+002
  9.6500000000000000e+002
  9.6300000000000000e+002
  9.6100000000000000e+002
  9.5900000000000000e+002
  9.5800000000000000e+002
  9.6100000000000000e+002
  9.6300000000000000e+002
  9.6400000000000000e+002
  9.6100000000000000e+002
  9.5700000000000000e+002
  9.5600000000000000e+002
  9.5800000000000000e+002
  9.6100000000000000e+002
  9.6000000000000000e+002
  9.5700000000000000e+002
  9.5600000000000000e+002
  9.5500000000000000e+002
  9.5600000000000000e+002
  9.5900000000000000e+002
  9.5700000000000000e+002
  9.5300000000000000e+002
  9.5100000000000000e+002
  9.4900000000000000e+002
  9.4700000000000000e+002
  9.4600000000000000e+002
  9.4500000000000000e+002
  9.5200000000000000e+002
  9.7500000000000000e+002
  1.0160000000000000e+003
  1.0620000000000000e+003
  1.1200000000000000e+003
  1.1860000000000000e+003
  1.2430000000000000e+003
  1.2620000000000000e+003
  1.2310000000000000e+003
  1.1710000000000000e+003
  1.1140000000000000e+003
  1.0600000000000000e+003
  1.0210000000000000e+003
  1.0050000000000000e+003
  1.0020000000000000e+003
  9.9700000000000000e+002
  9.9100000000000000e+002
  9.8600000000000000e+002
  9.7900000000000000e+002
  9.7500000000000000e+002
  9.7000000000000000e+002
  9.6300000000000000e+002
  9.5900000000000000e+002
  9.5100000000000000e+002
  9.4800000000000000e+002
  9.4500000000000000e+002
  9.4600000000000000e+002
  9.4700000000000000e+002
  9.4900000000000000e+002
  9.4700000000000000e+002
  9.4500000000000000e+002
  9.4200000000000000e+002
  9.4300000000000000e+002
  9.4400000000000000e+002
  9.4500000000000000e+002
  9.4400000000000000e+002
  9.4000000000000000e+002
  9.4000000000000000e+002
  9.4200000000000000e+002
  9.4300000000000000e+002
  9.4300000000000000e+002
  9.4300000000000000e+002
  9.4300000000000000e+002
  9.4400000000000000e+002
  9.4600000000000000e+002
  9.4700000000000000e+002
  9.4400000000000000e+002
  9.4300000000000000e+002
  9.4400000000000000e+002
  9.4100000000000000e+002
  9.4400000000000000e+002
  9.4000000000000000e+002
  9.4700000000000000e+002
  9.4600000000000000e+002
  9.4700000000000000e+002
  9.4400000000000000e+002
  9.4700000000000000e+002
  9.4600000000000000e+002
  9.4500000000000000e+002
  9.4200000000000000e+002
  9.4100000000000000e+002
  9.4100000000000000e+002
  9.4100000000000000e+002
  9.4500000000000000e+002
  9.4600000000000000e+002
  9.4800000000000000e+002
  9.4800000000000000e+002
  9.4500000000000000e+002
  9.4600000000000000e+002
  9.4900000000000000e+002
  9.5000000000000000e+002
  9.5100000000000000e+002
  9.4600000000000000e+002
  9.4400000000000000e+002
  9.4500000000000000e+002
  9.4800000000000000e+002
  9.5100000000000000e+002
  9.5100000000000000e+002
  9.5100000000000000e+002
  9.5000000000000000e+002
  9.5300000000000000e+002
  9.5500000000000000e+002
  9.5500000000000000e+002
  9.5600000000000000e+002
  9.5500000000000000e+002
  9.5400000000000000e+002
  9.5700000000000000e+002
  9.6000000000000000e+002
  9.6300000000000000e+002
  9.6500000000000000e+002
  9.6500000000000000e+002
  9.6200000000000000e+002
  9.6800000000000000e+002
  9.7100000000000000e+002
  9.7500000000000000e+002
  9.7700000000000000e+002
  9.7500000000000000e+002
  9.7400000000000000e+002
  9.7600000000000000e+002
  9.8300000000000000e+002
  9.8600000000000000e+002
  9.8800000000000000e+002
  9.9100000000000000e+002
  9.9300000000000000e+002
  9.9200000000000000e+002
  9.9500000000000000e+002
  9.9600000000000000e+002
  9.9500000000000000e+002
  9.9700000000000000e+002
  9.9300000000000000e+002
  9.9300000000000000e+002
  9.9900000000000000e+002
  1.0010000000000000e+003
  1.0030000000000000e+003
  1.0030000000000000e+003
  1.0010000000000000e+003
  1.0010000000000000e+003
  1.0040000000000000e+003
  1.0030000000000000e+003
  9.9800000000000000e+002
  9.9500000000000000e+002
  9.8900000000000000e+002
  9.9000000000000000e+002
  9.8900000000000000e+002
  9.9000000000000000e+002
  9.8600000000000000e+002
  9.8100000000000000e+002
  9.8000000000000000e+002
  9.7800000000000000e+002
  9.7700000000000000e+002
  9.7600000000000000e+002
  9.7200000000000000e+002
  9.6800000000000000e+002
  9.6600000000000000e+002
  9.6400000000000000e+002
  9.6800000000000000e+002
  9.6700000000000000e+002
  9.6400000000000000e+002
  9.6200000000000000e+002
  9.5800000000000000e+002
  9.5700000000000000e+002
  9.6000000000000000e+002
  9.6200000000000000e+002
  9.5900000000000000e+002
  9.5900000000000000e+002
  9.5600000000000000e+002
  9.5600000000000000e+002
  9.5900000000000000e+002
  9.6200000000000000e+002
  9.6200000000000000e+002
  9.5800000000000000e+002
  9.5500000000000000e+002
  9.5600000000000000e+002
  9.5700000000000000e+002
  9.5700000000000000e+002
  9.6100000000000000e+002
  9.5900000000000000e+002
  9.5700000000000000e+002
  9.5600000000000000e+002
  9.5900000000000000e+002
  9.6400000000000000e+002
  9.6400000000000000e+002
  9.6000000000000000e+002
  9.5700000000000000e+002
  9.6000000000000000e+002
  9.6300000000000000e+002
  9.6300000000000000e+002
  9.6200000000000000e+002
  9.6100000000000000e+002
  9.6000000000000000e+002
  9.6100000000000000e+002
  9.6300000000000000e+002
  9.6400000000000000e+002
  9.6600000000000000e+002
  9.6500000000000000e+002
  9.6300000000000000e+002
  9.6700000000000000e+002
  9.6800000000000000e+002
  9.6800000000000000e+002
  9.6500000000000000e+002
  9.6100000000000000e+002
  9.5900000000000000e+002
  9.6100000000000000e+002
  9.6500000000000000e+002
  9.6700000000000000e+002
  9.7000000000000000e+002
  9.6800000000000000e+002
  9.6400000000000000e+002
  9.6500000000000000e+002
  9.6800000000000000e+002
  9.7000000000000000e+002
  9.7000000000000000e+002
  9.6700000000000000e+002
  9.6400000000000000e+002
  9.6500000000000000e+002
  9.6800000000000000e+002
  9.6900000000000000e+002
  9.6900000000000000e+002
  9.6800000000000000e+002
  9.6600000000000000e+002
  9.6900000000000000e+002
  9.7000000000000000e+002
  9.7100000000000000e+002
  9.6900000000000000e+002
  9.6600000000000000e+002
  9.6500000000000000e+002
  9.6500000000000000e+002
  9.6700000000000000e+002
  9.7000000000000000e+002
  9.6800000000000000e+002
  9.6600000000000000e+002
  9.6400000000000000e+002
  9.6700000000000000e+002
  9.6900000000000000e+002
  9.6900000000000000e+002
  9.6900000000000000e+002
  9.6700000000000000e+002
  9.6700000000000000e+002
  9.6500000000000000e+002
  9.6700000000000000e+002
  9.6900000000000000e+002
  9.6800000000000000e+002
  9.6800000000000000e+002
  9.6400000000000000e+002
  9.6600000000000000e+002
  9.6600000000000000e+002
  9.6800000000000000e+002
  9.6900000000000000e+002
  9.6600000000000000e+002
  9.6300000000000000e+002
  9.6900000000000000e+002
  9.7100000000000000e+002
  9.7200000000000000e+002
  9.7200000000000000e+002
  9.6900000000000000e+002
  9.6500000000000000e+002
  9.6700000000000000e+002
  9.6800000000000000e+002
  9.7100000000000000e+002
  9.6900000000000000e+002
  9.6500000000000000e+002
  9.6400000000000000e+002
  9.6700000000000000e+002
  9.6700000000000000e+002
  9.6900000000000000e+002
  9.6900000000000000e+002
  9.6800000000000000e+002
  9.6700000000000000e+002
  9.6700000000000000e+002
  9.6800000000000000e+002
  9.6600000000000000e+002
  9.7000000000000000e+002
  9.6700000000000000e+002
  9.6700000000000000e+002
  9.6700000000000000e+002
  9.6800000000000000e+002
  9.6900000000000000e+002
  9.7000000000000000e+002
  9.6700000000000000e+002
  9.6600000000000000e+002
  9.6800000000000000e+002
  9.6800000000000000e+002
  9.7200000000000000e+002
  9.7300000000000000e+002
  9.7000000000000000e+002
  9.6800000000000000e+002
  9.7000000000000000e+002
  9.7300000000000000e+002
  9.7400000000000000e+002
  9.7400000000000000e+002
  9.7400000000000000e+002
  9.7500000000000000e+002
  9.7500000000000000e+002
  9.7900000000000000e+002
  9.8400000000000000e+002
  9.8800000000000000e+002
  9.9000000000000000e+002
  9.9400000000000000e+002
  1.0000000000000000e+003
  1.0060000000000000e+003
  1.0060000000000000e+003
  1.0030000000000000e+003
  1.0000000000000000e+003
  9.9500000000000000e+002
  9.9300000000000000e+002
  9.9100000000000000e+002
  9.9200000000000000e+002
  9.9200000000000000e+002
  9.9200000000000000e+002
  9.9100000000000000e+002
  9.9200000000000000e+002
  9.9100000000000000e+002
  9.8600000000000000e+002
  9.8300000000000000e+002
  9.7800000000000000e+002
  9.7400000000000000e+002
  9.7200000000000000e+002
  9.6700000000000000e+002
  9.7000000000000000e+002
  9.7100000000000000e+002
  9.7100000000000000e+002
  9.7000000000000000e+002
  9.7200000000000000e+002
  9.7300000000000000e+002
  9.7100000000000000e+002
  9.7100000000000000e+002
  9.6600000000000000e+002
  9.6400000000000000e+002
  9.6600000000000000e+002
  9.6800000000000000e+002
  9.6900000000000000e+002
  9.7000000000000000e+002
  9.6800000000000000e+002
  9.6700000000000000e+002
  9.6500000000000000e+002
  9.6600000000000000e+002
  9.6900000000000000e+002
  9.6900000000000000e+002
  9.6500000000000000e+002
  9.5900000000000000e+002
  9.5600000000000000e+002
  9.5300000000000000e+002
  9.6000000000000000e+002
  9.7200000000000000e+002
  9.9800000000000000e+002
  1.0300000000000000e+003
  1.0810000000000000e+003
  1.1440000000000000e+003
  1.2140000000000000e+003
  1.2620000000000000e+003
  1.2670000000000000e+003
  1.2230000000000000e+003
  1.1580000000000000e+003
  1.0990000000000000e+003
  1.0580000000000000e+003
  1.0350000000000000e+003
  1.0280000000000000e+003
  1.0250000000000000e+003
  1.0190000000000000e+003
  1.0140000000000000e+003
  1.0100000000000000e+003
  1.0030000000000000e+003
  9.9500000000000000e+002
  9.8200000000000000e+002
  9.7500000000000000e+002
  9.6900000000000000e+002
  9.6800000000000000e+002
  9.6700000000000000e+002
  9.6400000000000000e+002
  9.6000000000000000e+002
  9.6000000000000000e+002
  9.5800000000000000e+002
  9.6100000000000000e+002
  9.6000000000000000e+002
  9.5800000000000000e+002
  9.5500000000000000e+002
  9.5600000000000000e+002
  9.5700000000000000e+002
  9.5500000000000000e+002
  9.5600000000000000e+002
  9.5600000000000000e+002
  9.5300000000000000e+002
  9.5400000000000000e+002
  9.5300000000000000e+002
  9.5500000000000000e+002
  9.5400000000000000e+002
  9.5100000000000000e+002
  9.5200000000000000e+002
  9.5100000000000000e+002
  9.5500000000000000e+002
  9.5500000000000000e+002
  9.5600000000000000e+002
  9.5400000000000000e+002
  9.5100000000000000e+002
  9.5400000000000000e+002
  9.5400000000000000e+002
  9.5800000000000000e+002
  9.5800000000000000e+002
  9.5600000000000000e+002
  9.5400000000000000e+002
  9.5500000000000000e+002
  9.5400000000000000e+002
  9.5900000000000000e+002
  9.6000000000000000e+002
  9.6100000000000000e+002
  9.5500000000000000e+002
  9.5400000000000000e+002
  9.5600000000000000e+002
  9.5800000000000000e+002
  9.5800000000000000e+002
  9.5700000000000000e+002
  9.5700000000000000e+002
  9.5800000000000000e+002
  9.5800000000000000e+002
  9.6100000000000000e+002
  9.6100000000000000e+002
  9.6100000000000000e+002
  9.6100000000000000e+002
  9.6100000000000000e+002
  9.6500000000000000e+002
  9.6600000000000000e+002
  9.6300000000000000e+002
  9.6200000000000000e+002
  9.6100000000000000e+002
  9.6600000000000000e+002
  9.7000000000000000e+002
  9.7300000000000000e+002
  9.7200000000000000e+002
  9.7000000000000000e+002
  9.6600000000000000e+002
  9.6700000000000000e+002
  9.7200000000000000e+002
  9.7400000000000000e+002
  9.7400000000000000e+002
  9.7700000000000000e+002
  9.7500000000000000e+002
  9.7900000000000000e+002
  9.8100000000000000e+002
  9.8700000000000000e+002
  9.8700000000000000e+002
  9.8600000000000000e+002
  9.8400000000000000e+002
  9.8200000000000000e+002
  9.8600000000000000e+002
  9.9000000000000000e+002
  9.8900000000000000e+002
  9.9300000000000000e+002
  9.9400000000000000e+002
  9.9700000000000000e+002
  1.0000000000000000e+003
  1.0040000000000000e+003
  1.0070000000000000e+003
  1.0070000000000000e+003
  1.0060000000000000e+003
  1.0060000000000000e+003
  1.0090000000000000e+003
  1.0120000000000000e+003
  1.0140000000000000e+003
  1.0110000000000000e+003
  1.0070000000000000e+003
  1.0100000000000000e+003
  1.0130000000000000e+003
  1.0100000000000000e+003
  1.0090000000000000e+003
  1.0060000000000000e+003
  1.0030000000000000e+003
  1.0010000000000000e+003
  1.0010000000000000e+003
  9.9900000000000000e+002
  9.9800000000000000e+002
  9.9300000000000000e+002
  9.9000000000000000e+002
  9.9100000000000000e+002
  9.8900000000000000e+002
  9.8900000000000000e+002
  9.8500000000000000e+002
  9.8200000000000000e+002
  9.7900000000000000e+002
  9.7700000000000000e+002
  9.7800000000000000e+002
  9.7600000000000000e+002
  9.8000000000000000e+002
  9.7800000000000000e+002
  9.7700000000000000e+002
  9.7500000000000000e+002
  9.7800000000000000e+002
  9.7700000000000000e+002
  9.7700000000000000e+002
  9.7500000000000000e+002
  9.7100000000000000e+002
  9.7200000000000000e+002
  9.7400000000000000e+002
  9.7500000000000000e+002
  9.7200000000000000e+002
  9.6900000000000000e+002
  9.6700000000000000e+002
  9.6900000000000000e+002
  9.7200000000000000e+002
  9.7300000000000000e+002
  9.7400000000000000e+002
  9.7400000000000000e+002
  9.7400000000000000e+002
  9.7600000000000000e+002
  9.7600000000000000e+002
  9.7500000000000000e+002
  9.7100000000000000e+002
  9.6900000000000000e+002
  9.6700000000000000e+002
  9.6900000000000000e+002
  9.7100000000000000e+002
  9.7200000000000000e+002
  9.7200000000000000e+002
  9.7200000000000000e+002
  9.7100000000000000e+002
  9.7300000000000000e+002
  9.7400000000000000e+002
  9.7600000000000000e+002
  9.7400000000000000e+002
  9.7400000000000000e+002
  9.7500000000000000e+002
  9.7500000000000000e+002
  9.7700000000000000e+002
  9.7900000000000000e+002
  9.8000000000000000e+002
  9.7700000000000000e+002
  9.7200000000000000e+002
  9.7500000000000000e+002
  9.7700000000000000e+002
  9.7800000000000000e+002
  9.7900000000000000e+002
  9.7800000000000000e+002
  9.7700000000000000e+002
  9.7600000000000000e+002
  9.7900000000000000e+002
  9.8100000000000000e+002
  9.8000000000000000e+002
  9.8000000000000000e+002
  9.7600000000000000e+002
  9.7600000000000000e+002
  9.7400000000000000e+002
  9.7600000000000000e+002
  9.7400000000000000e+002
  9.7500000000000000e+002
  9.7300000000000000e+002
  9.7700000000000000e+002
  9.7600000000000000e+002
  9.7600000000000000e+002
  9.7600000000000000e+002
  9.7700000000000000e+002
  9.7600000000000000e+002
  9.7900000000000000e+002
  9.8100000000000000e+002
  9.7900000000000000e+002
  9.7700000000000000e+002
  9.7500000000000000e+002
  9.7300000000000000e+002
  9.7500000000000000e+002
  9.7800000000000000e+002
  9.7900000000000000e+002
  9.8100000000000000e+002
  9.7700000000000000e+002
  9.7600000000000000e+002
  9.7300000000000000e+002
  9.7500000000000000e+002
  9.7600000000000000e+002
  9.7500000000000000e+002
  9.7600000000000000e+002
  9.7400000000000000e+002
  9.7400000000000000e+002
  9.7600000000000000e+002
  9.7500000000000000e+002
  9.7500000000000000e+002
  9.7600000000000000e+002
  9.7400000000000000e+002
  9.7400000000000000e+002
  9.7400000000000000e+002
  9.7600000000000000e+002
  9.7700000000000000e+002
  9.7600000000000000e+002
  9.7600000000000000e+002
  9.7600000000000000e+002
  9.7700000000000000e+002
  9.7900000000000000e+002
  9.8100000000000000e+002
  9.7600000000000000e+002
  9.7700000000000000e+002
  9.7400000000000000e+002
  9.7500000000000000e+002
  9.7800000000000000e+002
  9.7700000000000000e+002
  9.7700000000000000e+002
  9.7500000000000000e+002
  9.7300000000000000e+002
  9.7600000000000000e+002
  9.7600000000000000e+002
  9.8100000000000000e+002
  9.7900000000000000e+002
  9.7500000000000000e+002
  9.7500000000000000e+002
  9.7700000000000000e+002
  9.7900000000000000e+002
  9.7900000000000000e+002
  9.7700000000000000e+002
  9.7400000000000000e+002
  9.7500000000000000e+002
  9.7600000000000000e+002
  9.7800000000000000e+002
  9.8100000000000000e+002
  9.7900000000000000e+002
  9.8000000000000000e+002
  9.8000000000000000e+002
  9.8200000000000000e+002
  9.8700000000000000e+002
  9.8800000000000000e+002
  9.8600000000000000e+002
  9.8600000000000000e+002
  9.8500000000000000e+002
  9.8500000000000000e+002
  9.8900000000000000e+002
  9.8900000000000000e+002
  9.9300000000000000e+002
  9.9600000000000000e+002
  1.0040000000000000e+003
  1.0120000000000000e+003
  1.0160000000000000e+003
  1.0120000000000000e+003
  1.0080000000000000e+003
  1.0050000000000000e+003
  1.0060000000000000e+003
  1.0070000000000000e+003
  1.0060000000000000e+003
  1.0020000000000000e+003
  9.9900000000000000e+002
  9.9900000000000000e+002
  9.9700000000000000e+002
  9.9700000000000000e+002
  9.9900000000000000e+002
  9.9600000000000000e+002
  9.9200000000000000e+002
  9.8900000000000000e+002
  9.8700000000000000e+002
  9.8300000000000000e+002
  9.7900000000000000e+002
  9.7800000000000000e+002
  9.7800000000000000e+002
  9.7500000000000000e+002
  9.7400000000000000e+002
  9.7300000000000000e+002
  9.7600000000000000e+002
  9.7600000000000000e+002
  9.7500000000000000e+002
  9.7100000000000000e+002
  9.7400000000000000e+002
  9.7400000000000000e+002
  9.7500000000000000e+002
  9.7500000000000000e+002
  9.7000000000000000e+002
  9.6800000000000000e+002
  9.7300000000000000e+002
  9.7000000000000000e+002
  9.7400000000000000e+002
  9.7300000000000000e+002
  9.7200000000000000e+002
  9.7100000000000000e+002
  9.6900000000000000e+002
  9.6600000000000000e+002
  9.6300000000000000e+002
  9.5900000000000000e+002
  9.5800000000000000e+002
  9.6100000000000000e+002
  9.7900000000000000e+002
  1.0150000000000000e+003
  1.0610000000000000e+003
  1.1170000000000000e+003
  1.1830000000000000e+003
  1.2410000000000000e+003
  1.2550000000000000e+003
  1.2230000000000000e+003
  1.1650000000000000e+003
  1.1030000000000000e+003
  1.0540000000000000e+003
  1.0340000000000000e+003
  1.0350000000000000e+003
